"sep=	"
Shimmer_9D70_TimestampSync_Unix_CAL	Shimmer_9D70_EMG_CH2_24BIT_CAL	
ms	mV	
1.6994525390037876E12	1.3777635150468566	
1.699452539004764E12	1.3774029069029776	
1.6994525390057402E12	1.3778837177614829	
1.6994525390067168E12	1.378725136763867	
1.699452539007693E12	1.3814897992002726	
1.6994525390086694E12	1.381610001914899	
1.6994525390096458E12	1.377162501473725	
1.699452539010622E12	1.3800473666247566	
1.6994525390115984E12	1.381610001914899	
1.699452539012575E12	1.378725136763867	
1.6994525390135513E12	1.380888785627141	
1.6994525390145276E12	1.3776433123322303	
1.699452539015504E12	1.3770422987590987	
1.6994525390164802E12	1.3822110154880305	
1.6994525390174565E12	1.3830524344904147	
1.699452539018433E12	1.3814897992002726	
1.6994525390194094E12	1.3856968942121937	
1.6994525390203857E12	1.3811291910563936	
1.699452539021362E12	1.3830524344904147	
1.6994525390223384E12	1.3832928399196673	
1.6994525390233147E12	1.3840140562074252	
1.6994525390242913E12	1.38124939377102	
1.6994525390252676E12	1.3820908127734042	
1.699452539026244E12	1.3805281774832618	
1.6994525390272202E12	1.3806483801978884	
1.6994525390281965E12	1.3807685829125147	
1.6994525390291729E12	1.3842544616366779	
1.6994525390301494E12	1.3834130426342937	
1.6994525390311257E12	1.3802877720540092	
1.699452539032102E12	1.3823312182026568	
1.6994525390330784E12	1.379085744907746	
1.6994525390340547E12	1.3832928399196673	
1.699452539035031E12	1.3783645286199881	
1.6994525390360076E12	1.3844948670659305	
1.699452539036984E12	1.385456488782941	
1.6994525390379602E12	1.3834130426342937	
1.6994525390389365E12	1.3840140562074252	
1.6994525390399128E12	1.3806483801978884	
1.6994525390408892E12	1.3813695964856463	
1.6994525390418657E12	1.3843746643513042	
1.699452539042842E12	1.3844948670659305	
1.6994525390438184E12	1.3852160833536884	
1.6994525390447947E12	1.383893853492799	
1.699452539045771E12	1.3799271639101303	
1.6994525390467473E12	1.379085744907746	
1.6994525390477239E12	1.3841342589220516	
1.6994525390487002E12	1.381610001914899	
1.6994525390496765E12	1.3830524344904147	
1.6994525390506528E12	1.3804079747686355	
1.6994525390516292E12	1.3788453394784934	
1.6994525390526055E12	1.3796867584808776	
1.699452539053582E12	1.3823312182026568	
1.6994525390545583E12	1.3810089883417673	
1.6994525390555347E12	1.3856968942121937	
1.699452539056511E12	1.3844948670659305	
1.6994525390574873E12	1.38353324534892	
1.6994525390584636E12	1.3830524344904147	
1.6994525390594402E12	1.385095880639062	
1.6994525390604165E12	1.3829322317757884	
1.6994525390613928E12	1.3807685829125147	
1.6994525390623691E12	1.3823312182026568	
1.6994525390633455E12	1.3848554752098095	
1.6994525390643218E12	1.3841342589220516	
1.6994525390652983E12	1.3795665557662513	
1.6994525390662747E12	1.3826918263465358	
1.699452539067251E12	1.3834130426342937	
1.6994525390682273E12	1.3817302046295252	
1.6994525390692036E12	1.38124939377102	
1.69945253907018E12	1.3813695964856463	
1.6994525390711565E12	1.3819706100587779	
1.6994525390721328E12	1.3814897992002726	
1.6994525390731091E12	1.3799271639101303	
1.6994525390740854E12	1.3769220960444724	
1.6994525390750618E12	1.3805281774832618	
1.699452539076038E12	1.3793261503369987	
1.6994525390770146E12	1.3802877720540092	
1.699452539077991E12	1.380167569339383	
1.6994525390789673E12	1.374878649895825	
1.6994525390799436E12	1.3769220960444724	
1.69945253908092E12	1.3782443259053618	
1.6994525390818962E12	1.3746382444665723	
1.6994525390828728E12	1.3735564200349355	
1.699452539083849E12	1.3749988526104513	
1.6994525390848254E12	1.3728352037471776	
1.6994525390858018E12	1.374157433608067	
1.699452539086778E12	1.3710321630277829	
1.6994525390877544E12	1.3716331766009144	
1.699452539088731E12	1.3727150010325513	
1.6994525390897073E12	1.3717533793155408	
1.6994525390906836E12	1.369589730452267	
1.69945253909166E12	1.3674260815889934	
1.6994525390926362E12	1.3656230408695986	
1.6994525390936125E12	1.3704311494546513	
1.699452539094589E12	1.3662240544427302	
1.6994525390955654E12	1.371873582030167	
1.6994525390965417E12	1.3749988526104513	
1.699452539097518E12	1.369589730452267	
1.6994525390984944E12	1.3688685141645092	
1.6994525390994707E12	1.3707917575985302	
1.6994525391004473E12	1.3746382444665723	
1.6994525391014236E12	1.3783645286199881	
1.6994525391024E12	1.3762008797567145	
1.6994525391033762E12	1.377162501473725	
1.6994525391043525E12	1.376801893329846	
1.6994525391053289E12	1.3742776363226934	
1.6994525391063054E12	1.3743978390373197	
1.6994525391072817E12	1.377523109617604	
1.699452539108258E12	1.376441285185967	
1.6994525391092344E12	1.3772827041883513	
1.6994525391102107E12	1.3774029069029776	
1.699452539111187E12	1.376441285185967	
1.6994525391121636E12	1.380167569339383	
1.69945253911314E12	1.3758402716128355	
1.6994525391141162E12	1.376801893329846	
1.6994525391150925E12	1.3776433123322303	
1.6994525391160688E12	1.377162501473725	
1.6994525391170452E12	1.3811291910563936	
1.6994525391180217E12	1.3747584471811987	
1.699452539118998E12	1.3802877720540092	
1.6994525391199744E12	1.3778837177614829	
1.6994525391209507E12	1.381610001914899	
1.699452539121927E12	1.3807685829125147	
1.6994525391229033E12	1.3800473666247566	
1.69945253912388E12	1.378725136763867	
1.6994525391248562E12	1.3784847313346145	
1.6994525391258325E12	1.379085744907746	
1.6994525391268088E12	1.376801893329846	
1.6994525391277852E12	1.3759604743274618	
1.6994525391287615E12	1.377162501473725	
1.699452539129738E12	1.380167569339383	
1.6994525391307144E12	1.3804079747686355	
1.6994525391316907E12	1.379446353051625	
1.699452539132667E12	1.3824514209172831	
1.6994525391336433E12	1.377523109617604	
1.6994525391346196E12	1.381610001914899	
1.6994525391355962E12	1.379806961195504	
1.6994525391365725E12	1.3804079747686355	
1.6994525391375488E12	1.3825716236319094	
1.6994525391385251E12	1.3817302046295252	
1.6994525391395015E12	1.3832928399196673	
1.6994525391404778E12	1.3817302046295252	
1.6994525391414543E12	1.3829322317757884	
1.6994525391424307E12	1.383893853492799	
1.699452539143407E12	1.3813695964856463	
1.6994525391443833E12	1.3799271639101303	
1.6994525391453596E12	1.3837736507781726	
1.699452539146336E12	1.3817302046295252	
1.6994525391473125E12	1.3788453394784934	
1.6994525391482888E12	1.3806483801978884	
1.6994525391492651E12	1.3810089883417673	
1.6994525391502415E12	1.3806483801978884	
1.6994525391512178E12	1.380167569339383	
1.699452539152194E12	1.381610001914899	
1.6994525391531707E12	1.3792059476223724	
1.699452539154147E12	1.3837736507781726	
1.6994525391551233E12	1.3860575023560726	
1.6994525391560996E12	1.383172637205041	
1.699452539157076E12	1.38124939377102	
1.6994525391580522E12	1.3818504073441515	
1.6994525391590288E12	1.3789655421931197	
1.6994525391600051E12	1.38353324534892	
1.6994525391609814E12	1.3786049340492408	
1.6994525391619578E12	1.3814897992002726	
1.699452539162934E12	1.3800473666247566	
1.6994525391639104E12	1.380888785627141	
1.699452539164887E12	1.380888785627141	
1.6994525391658633E12	1.380167569339383	
1.6994525391668396E12	1.378725136763867	
1.699452539167816E12	1.3782443259053618	
1.6994525391687922E12	1.3830524344904147	
1.6994525391697686E12	1.379806961195504	
1.699452539170745E12	1.3817302046295252	
1.6994525391717214E12	1.3829322317757884	
1.6994525391726978E12	1.3844948670659305	
1.699452539173674E12	1.380888785627141	
1.6994525391746504E12	1.3819706100587779	
1.6994525391756267E12	1.378725136763867	
1.6994525391766033E12	1.379446353051625	
1.6994525391775796E12	1.3811291910563936	
1.699452539178556E12	1.3813695964856463	
1.6994525391795322E12	1.381610001914899	
1.6994525391805085E12	1.380888785627141	
1.6994525391814849E12	1.3829322317757884	
1.6994525391824614E12	1.3856968942121937	
1.6994525391834377E12	1.38353324534892	
1.699452539184414E12	1.3843746643513042	
1.6994525391853904E12	1.3825716236319094	
1.6994525391863667E12	1.379806961195504	
1.699452539187343E12	1.3829322317757884	
1.6994525391883196E12	1.385456488782941	
1.699452539189296E12	1.382812029061162	
1.6994525391902722E12	1.380888785627141	
1.6994525391912485E12	1.383172637205041	
1.6994525391922249E12	1.3832928399196673	
1.6994525391932012E12	1.3817302046295252	
1.6994525391941777E12	1.3847352724951831	
1.699452539195154E12	1.3783645286199881	
1.6994525391961304E12	1.3802877720540092	
1.6994525391971067E12	1.3805281774832618	
1.699452539198083E12	1.379085744907746	
1.6994525391990593E12	1.3774029069029776	
1.699452539200036E12	1.3784847313346145	
1.6994525392010122E12	1.3795665557662513	
1.6994525392019885E12	1.3796867584808776	
1.6994525392029648E12	1.377523109617604	
1.6994525392039412E12	1.3806483801978884	
1.6994525392049175E12	1.3819706100587779	
1.699452539205894E12	1.3818504073441515	
1.6994525392068704E12	1.379446353051625	
1.6994525392078467E12	1.3805281774832618	
1.699452539208823E12	1.3776433123322303	
1.6994525392097993E12	1.3776433123322303	
1.6994525392107756E12	1.3820908127734042	
1.6994525392117522E12	1.3837736507781726	
1.6994525392127285E12	1.3825716236319094	
1.6994525392137048E12	1.3807685829125147	
1.6994525392146812E12	1.383172637205041	
1.6994525392156575E12	1.3837736507781726	
1.6994525392166338E12	1.3843746643513042	
1.6994525392176104E12	1.3840140562074252	
1.6994525392185867E12	1.3837736507781726	
1.699452539219563E12	1.3807685829125147	
1.6994525392205393E12	1.3872595295023358	
1.6994525392215156E12	1.3855766914975673	
1.699452539222492E12	1.3826918263465358	
1.6994525392234685E12	1.385456488782941	
1.6994525392244448E12	1.3826918263465358	
1.6994525392254211E12	1.382812029061162	
1.6994525392263975E12	1.3834130426342937	
1.6994525392273738E12	1.3836534480635463	
1.69945253922835E12	1.380888785627141	
1.6994525392293267E12	1.3842544616366779	
1.699452539230303E12	1.3862979077853252	
1.6994525392312793E12	1.3844948670659305	
1.6994525392322556E12	1.3855766914975673	
1.699452539233232E12	1.3826918263465358	
1.6994525392342083E12	1.3796867584808776	
1.6994525392351848E12	1.3810089883417673	
1.6994525392361611E12	1.3814897992002726	
1.6994525392371375E12	1.3788453394784934	
1.6994525392381138E12	1.3784847313346145	
1.69945253923909E12	1.3820908127734042	
1.6994525392400667E12	1.3836534480635463	
1.699452539241043E12	1.3856968942121937	
1.6994525392420193E12	1.3846150697805568	
1.6994525392429956E12	1.3813695964856463	
1.699452539243972E12	1.3824514209172831	
1.6994525392449482E12	1.3834130426342937	
1.6994525392459248E12	1.3800473666247566	
1.6994525392469011E12	1.3825716236319094	
1.6994525392478774E12	1.3813695964856463	
1.6994525392488538E12	1.3811291910563936	
1.69945253924983E12	1.38581709692682	
1.6994525392508064E12	1.385095880639062	
1.699452539251783E12	1.3830524344904147	
1.6994525392527593E12	1.3855766914975673	
1.6994525392537356E12	1.3819706100587779	
1.699452539254712E12	1.3846150697805568	
1.6994525392556882E12	1.3807685829125147	
1.6994525392566646E12	1.3840140562074252	
1.699452539257641E12	1.3844948670659305	
1.6994525392586174E12	1.383172637205041	
1.6994525392595938E12	1.3819706100587779	
1.69945253926057E12	1.385095880639062	
1.6994525392615464E12	1.382812029061162	
1.6994525392625227E12	1.3853362860683147	
1.6994525392634993E12	1.38581709692682	
1.6994525392644756E12	1.3849756779244358	
1.699452539265452E12	1.3811291910563936	
1.6994525392664282E12	1.3855766914975673	
1.6994525392674045E12	1.387740340360841	
1.6994525392683809E12	1.3883413539339726	
1.6994525392693574E12	1.3822110154880305	
1.6994525392703337E12	1.38124939377102	
1.69945253927131E12	1.3867787186438305	
1.6994525392722864E12	1.3837736507781726	
1.6994525392732627E12	1.3846150697805568	
1.699452539274239E12	1.3842544616366779	
1.6994525392752156E12	1.381610001914899	
1.699452539276192E12	1.3853362860683147	
1.6994525392771682E12	1.3826918263465358	
1.6994525392781445E12	1.3871393267877095	
1.6994525392791208E12	1.3832928399196673	
1.6994525392800972E12	1.383893853492799	
1.6994525392810737E12	1.3834130426342937	
1.69945253928205E12	1.3796867584808776	
1.6994525392830264E12	1.3837736507781726	
1.6994525392840027E12	1.3866585159292042	
1.699452539284979E12	1.3871393267877095	
1.6994525392859553E12	1.38581709692682	
1.699452539286932E12	1.3853362860683147	
1.6994525392879082E12	1.3878605430754674	
1.6994525392888845E12	1.3837736507781726	
1.6994525392898608E12	1.3852160833536884	
1.6994525392908372E12	1.38353324534892	
1.6994525392918135E12	1.3856968942121937	
1.69945253929279E12	1.385095880639062	
1.6994525392937664E12	1.386177705070699	
1.6994525392947427E12	1.3864181104999516	
1.699452539295719E12	1.3800473666247566	
1.6994525392966953E12	1.3842544616366779	
1.6994525392976716E12	1.3804079747686355	
1.6994525392986482E12	1.3864181104999516	
1.6994525392996245E12	1.385456488782941	
1.6994525393006008E12	1.385456488782941	
1.6994525393015771E12	1.390024191938741	
1.6994525393025535E12	1.3867787186438305	
1.6994525393035298E12	1.38124939377102	
1.6994525393045063E12	1.387740340360841	
1.6994525393054827E12	1.3849756779244358	
1.699452539306459E12	1.3865383132145779	
1.6994525393074353E12	1.38581709692682	
1.6994525393084116E12	1.3855766914975673	
1.699452539309388E12	1.3826918263465358	
1.6994525393103645E12	1.385095880639062	
1.6994525393113408E12	1.3823312182026568	
1.6994525393123171E12	1.3849756779244358	
1.6994525393132935E12	1.3859372996414463	
1.6994525393142698E12	1.3891827729363568	
1.699452539315246E12	1.3876201376462147	
1.6994525393162227E12	1.3811291910563936	
1.699452539317199E12	1.3842544616366779	
1.6994525393181753E12	1.3820908127734042	
1.6994525393191516E12	1.3874999349315884	
1.699452539320128E12	1.3826918263465358	
1.6994525393211042E12	1.3865383132145779	
1.6994525393220808E12	1.3844948670659305	
1.6994525393230571E12	1.3843746643513042	
1.6994525393240334E12	1.3846150697805568	
1.6994525393250098E12	1.3825716236319094	
1.699452539325986E12	1.3846150697805568	
1.6994525393269624E12	1.382812029061162	
1.699452539327939E12	1.3846150697805568	
1.6994525393289153E12	1.382812029061162	
1.6994525393298916E12	1.3843746643513042	
1.699452539330868E12	1.3825716236319094	
1.6994525393318442E12	1.3802877720540092	
1.6994525393328206E12	1.3867787186438305	
1.699452539333797E12	1.3817302046295252	
1.6994525393347734E12	1.3842544616366779	
1.6994525393357498E12	1.383172637205041	
1.699452539336726E12	1.3862979077853252	
1.6994525393377024E12	1.3847352724951831	
1.6994525393386787E12	1.3841342589220516	
1.6994525393396553E12	1.3887019620778516	
1.6994525393406316E12	1.3832928399196673	
1.699452539341608E12	1.3820908127734042	
1.6994525393425842E12	1.3829322317757884	
1.6994525393435605E12	1.3887019620778516	
1.6994525393445369E12	1.3864181104999516	
1.6994525393455134E12	1.3866585159292042	
1.6994525393464897E12	1.3859372996414463	
1.699452539347466E12	1.3882211512193463	
1.6994525393484424E12	1.3862979077853252	
1.6994525393494187E12	1.3830524344904147	
1.699452539350395E12	1.3847352724951831	
1.6994525393513716E12	1.3855766914975673	
1.699452539352348E12	1.3830524344904147	
1.6994525393533242E12	1.387379732216962	
1.6994525393543005E12	1.3837736507781726	
1.6994525393552769E12	1.3820908127734042	
1.6994525393562532E12	1.3859372996414463	
1.6994525393572297E12	1.3842544616366779	
1.699452539358206E12	1.3847352724951831	
1.6994525393591824E12	1.3844948670659305	
1.6994525393601587E12	1.3862979077853252	
1.699452539361135E12	1.3829322317757884	
1.6994525393621113E12	1.3865383132145779	
1.699452539363088E12	1.38353324534892	
1.6994525393640642E12	1.3866585159292042	
1.6994525393650405E12	1.3905050027972463	
1.6994525393660168E12	1.391947435372762	
1.6994525393669932E12	1.3855766914975673	
1.6994525393679695E12	1.3888221647924779	
1.699452539368946E12	1.3870191240730831	
1.6994525393699224E12	1.3867787186438305	
1.6994525393708987E12	1.3846150697805568	
1.699452539371875E12	1.3855766914975673	
1.6994525393728513E12	1.3893029756509832	
1.6994525393738276E12	1.3871393267877095	
1.6994525393748042E12	1.3865383132145779	
1.6994525393757805E12	1.3872595295023358	
1.6994525393767568E12	1.389663583794862	
1.6994525393777332E12	1.3819706100587779	
1.6994525393787095E12	1.3836534480635463	
1.6994525393796858E12	1.385456488782941	
1.6994525393806624E12	1.3879807457900937	
1.6994525393816387E12	1.3895433810802358	
1.699452539382615E12	1.3871393267877095	
1.6994525393835913E12	1.3867787186438305	
1.6994525393845676E12	1.3860575023560726	
1.699452539385544E12	1.3891827729363568	
1.6994525393865205E12	1.3871393267877095	
1.6994525393874968E12	1.3882211512193463	
1.6994525393884731E12	1.3843746643513042	
1.6994525393894495E12	1.391947435372762	
1.6994525393904258E12	1.389663583794862	
1.699452539391402E12	1.3908656109411253	
1.6994525393923787E12	1.387740340360841	
1.699452539393355E12	1.3874999349315884	
1.6994525393943313E12	1.3879807457900937	
1.6994525393953076E12	1.388461556648599	
1.699452539396284E12	1.390024191938741	
1.6994525393972603E12	1.3888221647924779	
1.6994525393982368E12	1.3895433810802358	
1.6994525393992131E12	1.3887019620778516	
1.6994525394001895E12	1.3887019620778516	
1.6994525394011658E12	1.39038480008262	
1.699452539402142E12	1.3891827729363568	
1.6994525394031184E12	1.38581709692682	
1.699452539404095E12	1.387740340360841	
1.6994525394050713E12	1.3837736507781726	
1.6994525394060476E12	1.3891827729363568	
1.699452539407024E12	1.3913464217996305	
1.6994525394080002E12	1.3885817593632253	
1.6994525394089766E12	1.3872595295023358	
1.6994525394099531E12	1.3852160833536884	
1.6994525394109294E12	1.3882211512193463	
1.6994525394119058E12	1.3912262190850042	
1.699452539412882E12	1.3908656109411253	
1.6994525394138584E12	1.387740340360841	
1.6994525394148347E12	1.3872595295023358	
1.6994525394158113E12	1.385456488782941	
1.6994525394167876E12	1.39038480008262	
1.699452539417764E12	1.3887019620778516	
1.6994525394187402E12	1.3864181104999516	
1.6994525394197166E12	1.3890625702217305	
1.6994525394206929E12	1.387740340360841	
1.6994525394216694E12	1.3917070299435095	
1.6994525394226458E12	1.3844948670659305	
1.699452539423622E12	1.3899039892241147	
1.6994525394245984E12	1.390745408226499	
1.6994525394255747E12	1.39038480008262	
1.699452539426551E12	1.3876201376462147	
1.6994525394275276E12	1.3853362860683147	
1.699452539428504E12	1.3846150697805568	
1.6994525394294802E12	1.3894231783656095	
1.6994525394304565E12	1.3855766914975673	
1.6994525394314329E12	1.3844948670659305	
1.6994525394324092E12	1.3817302046295252	
1.6994525394333857E12	1.385456488782941	
1.699452539434362E12	1.3852160833536884	
1.6994525394353384E12	1.3848554752098095	
1.6994525394363147E12	1.3874999349315884	
1.699452539437291E12	1.3842544616366779	
1.6994525394382673E12	1.3864181104999516	
1.699452539439244E12	1.3853362860683147	
1.6994525394402202E12	1.3830524344904147	
1.6994525394411965E12	1.3817302046295252	
1.6994525394421729E12	1.3846150697805568	
1.6994525394431492E12	1.386177705070699	
1.6994525394441255E12	1.382812029061162	
1.699452539445102E12	1.3810089883417673	
1.6994525394460784E12	1.3874999349315884	
1.6994525394470547E12	1.3862979077853252	
1.699452539448031E12	1.3865383132145779	
1.6994525394490073E12	1.3901443946533674	
1.6994525394499836E12	1.3882211512193463	
1.6994525394509602E12	1.385095880639062	
1.6994525394519365E12	1.3848554752098095	
1.6994525394529128E12	1.3844948670659305	
1.6994525394538892E12	1.383893853492799	
1.6994525394548655E12	1.3856968942121937	
1.6994525394558418E12	1.39038480008262	
1.6994525394568184E12	1.3883413539339726	
1.6994525394577947E12	1.3846150697805568	
1.699452539458771E12	1.390024191938741	
1.6994525394597473E12	1.3870191240730831	
1.6994525394607236E12	1.3856968942121937	
1.6994525394617E12	1.3853362860683147	
1.6994525394626765E12	1.3889423675071042	
1.6994525394636528E12	1.387740340360841	
1.6994525394646292E12	1.3887019620778516	
1.6994525394656055E12	1.387740340360841	
1.6994525394665818E12	1.3879807457900937	
1.699452539467558E12	1.3890625702217305	
1.6994525394685347E12	1.3849756779244358	
1.699452539469511E12	1.3853362860683147	
1.6994525394704873E12	1.3844948670659305	
1.6994525394714636E12	1.383172637205041	
1.69945253947244E12	1.3852160833536884	
1.6994525394734163E12	1.3859372996414463	
1.6994525394743928E12	1.3866585159292042	
1.6994525394753691E12	1.3860575023560726	
1.6994525394763455E12	1.3924282462312674	
1.6994525394773218E12	1.3882211512193463	
1.699452539478298E12	1.3885817593632253	
1.6994525394792744E12	1.3826918263465358	
1.699452539480251E12	1.3872595295023358	
1.6994525394812273E12	1.3889423675071042	
1.6994525394822036E12	1.3885817593632253	
1.69945253948318E12	1.3856968942121937	
1.6994525394841562E12	1.3899039892241147	
1.6994525394851326E12	1.3913464217996305	
1.6994525394861091E12	1.3876201376462147	
1.6994525394870854E12	1.3894231783656095	
1.6994525394880618E12	1.3876201376462147	
1.699452539489038E12	1.3883413539339726	
1.6994525394900144E12	1.3871393267877095	
1.6994525394909907E12	1.3879807457900937	
1.6994525394919673E12	1.3837736507781726	
1.6994525394929436E12	1.385095880639062	
1.69945253949392E12	1.3832928399196673	
1.6994525394948962E12	1.3832928399196673	
1.6994525394958726E12	1.3810089883417673	
1.6994525394968489E12	1.381610001914899	
1.6994525394978254E12	1.3825716236319094	
1.6994525394988018E12	1.383893853492799	
1.699452539499778E12	1.3804079747686355	
1.6994525395007544E12	1.3813695964856463	
1.6994525395017307E12	1.3818504073441515	
1.699452539502707E12	1.380888785627141	
1.6994525395036836E12	1.379806961195504	
1.69945253950466E12	1.3829322317757884	
1.6994525395056362E12	1.3836534480635463	
1.6994525395066125E12	1.383172637205041	
1.6994525395075889E12	1.3830524344904147	
1.6994525395085652E12	1.3829322317757884	
1.6994525395095417E12	1.3842544616366779	
1.699452539510518E12	1.3786049340492408	
1.6994525395114944E12	1.3825716236319094	
1.6994525395124707E12	1.3810089883417673	
1.699452539513447E12	1.3843746643513042	
1.6994525395144233E12	1.3844948670659305	
1.6994525395154E12	1.3843746643513042	
1.6994525395163762E12	1.38124939377102	
1.6994525395173525E12	1.379446353051625	
1.6994525395183289E12	1.378725136763867	
1.6994525395193052E12	1.3818504073441515	
1.6994525395202815E12	1.3860575023560726	
1.699452539521258E12	1.3842544616366779	
1.6994525395222344E12	1.382812029061162	
1.6994525395232107E12	1.3852160833536884	
1.699452539524187E12	1.3822110154880305	
1.6994525395251633E12	1.386177705070699	
1.6994525395261396E12	1.3846150697805568	
1.6994525395271162E12	1.38581709692682	
1.6994525395280925E12	1.381610001914899	
1.6994525395290688E12	1.3811291910563936	
1.6994525395300452E12	1.3841342589220516	
1.6994525395310215E12	1.383893853492799	
1.6994525395319978E12	1.3830524344904147	
1.6994525395329744E12	1.3804079747686355	
1.6994525395339507E12	1.3836534480635463	
1.699452539534927E12	1.3822110154880305	
1.6994525395359033E12	1.3834130426342937	
1.6994525395368796E12	1.379085744907746	
1.6994525395378562E12	1.3805281774832618	
1.6994525395388325E12	1.3807685829125147	
1.6994525395398088E12	1.3849756779244358	
1.6994525395407852E12	1.3843746643513042	
1.6994525395417615E12	1.38124939377102	
1.6994525395427378E12	1.3848554752098095	
1.6994525395437144E12	1.383893853492799	
1.6994525395446907E12	1.3860575023560726	
1.699452539545667E12	1.3826918263465358	
1.6994525395466433E12	1.382812029061162	
1.6994525395476196E12	1.3824514209172831	
1.699452539548596E12	1.385456488782941	
1.6994525395495725E12	1.3818504073441515	
1.6994525395505488E12	1.3811291910563936	
1.6994525395515251E12	1.3824514209172831	
1.6994525395525015E12	1.386177705070699	
1.6994525395534778E12	1.38124939377102	
1.699452539554454E12	1.3800473666247566	
1.6994525395554307E12	1.3841342589220516	
1.699452539556407E12	1.383172637205041	
1.6994525395573833E12	1.385456488782941	
1.6994525395583596E12	1.3824514209172831	
1.699452539559336E12	1.38581709692682	
1.6994525395603123E12	1.3820908127734042	
1.6994525395612888E12	1.3849756779244358	
1.6994525395622651E12	1.383893853492799	
1.6994525395632415E12	1.3885817593632253	
1.6994525395642178E12	1.3832928399196673	
1.699452539565194E12	1.3849756779244358	
1.6994525395661704E12	1.3826918263465358	
1.699452539567147E12	1.3836534480635463	
1.6994525395681233E12	1.385095880639062	
1.6994525395690996E12	1.386177705070699	
1.699452539570076E12	1.3842544616366779	
1.6994525395710522E12	1.3848554752098095	
1.6994525395720286E12	1.3836534480635463	
1.6994525395730051E12	1.3852160833536884	
1.6994525395739814E12	1.3817302046295252	
1.6994525395749578E12	1.3844948670659305	
1.699452539575934E12	1.3825716236319094	
1.6994525395769104E12	1.3825716236319094	
1.6994525395778867E12	1.3856968942121937	
1.6994525395788633E12	1.386177705070699	
1.6994525395798396E12	1.3885817593632253	
1.699452539580816E12	1.3867787186438305	
1.6994525395817922E12	1.3860575023560726	
1.6994525395827686E12	1.3871393267877095	
1.6994525395837449E12	1.385456488782941	
1.6994525395847214E12	1.3871393267877095	
1.6994525395856978E12	1.3853362860683147	
1.699452539586674E12	1.388461556648599	
1.6994525395876504E12	1.3856968942121937	
1.6994525395886267E12	1.38353324534892	
1.699452539589603E12	1.3834130426342937	
1.6994525395905796E12	1.385095880639062	
1.699452539591556E12	1.381610001914899	
1.6994525395925322E12	1.3843746643513042	
1.6994525395935085E12	1.3849756779244358	
1.6994525395944849E12	1.3778837177614829	
1.6994525395954612E12	1.3813695964856463	
1.6994525395964377E12	1.3788453394784934	
1.699452539597414E12	1.3847352724951831	
1.6994525395983904E12	1.38124939377102	
1.6994525395993667E12	1.3807685829125147	
1.699452539600343E12	1.3883413539339726	
1.6994525396013193E12	1.3822110154880305	
1.699452539602296E12	1.381610001914899	
1.6994525396032722E12	1.3870191240730831	
1.6994525396042485E12	1.3856968942121937	
1.6994525396052249E12	1.3864181104999516	
1.6994525396062012E12	1.3813695964856463	
1.6994525396071775E12	1.386177705070699	
1.699452539608154E12	1.3872595295023358	
1.6994525396091304E12	1.3856968942121937	
1.6994525396101067E12	1.3865383132145779	
1.699452539611083E12	1.3852160833536884	
1.6994525396120593E12	1.3829322317757884	
1.6994525396130356E12	1.3817302046295252	
1.6994525396140122E12	1.3820908127734042	
1.6994525396149885E12	1.3823312182026568	
1.6994525396159648E12	1.3806483801978884	
1.6994525396169412E12	1.3814897992002726	
1.6994525396179175E12	1.38353324534892	
1.6994525396188938E12	1.382812029061162	
1.6994525396198704E12	1.3855766914975673	
1.6994525396208467E12	1.3844948670659305	
1.699452539621823E12	1.3844948670659305	
1.6994525396227993E12	1.3871393267877095	
1.6994525396237756E12	1.3912262190850042	
1.699452539624752E12	1.3888221647924779	
1.6994525396257285E12	1.3899039892241147	
1.6994525396267048E12	1.3871393267877095	
1.6994525396276812E12	1.3883413539339726	
1.6994525396286575E12	1.3897837865094884	
1.6994525396296338E12	1.3879807457900937	
1.69945253963061E12	1.3848554752098095	
1.6994525396315867E12	1.3864181104999516	
1.699452539632563E12	1.38581709692682	
1.6994525396335393E12	1.379446353051625	
1.6994525396345156E12	1.3878605430754674	
1.699452539635492E12	1.3832928399196673	
1.6994525396364683E12	1.3853362860683147	
1.6994525396374448E12	1.3856968942121937	
1.6994525396384211E12	1.3865383132145779	
1.6994525396393975E12	1.3899039892241147	
1.6994525396403738E12	1.3905050027972463	
1.69945253964135E12	1.3872595295023358	
1.6994525396423264E12	1.390745408226499	
1.699452539643303E12	1.3842544616366779	
1.6994525396442793E12	1.3847352724951831	
1.6994525396452556E12	1.3859372996414463	
1.699452539646232E12	1.3846150697805568	
1.6994525396472083E12	1.3836534480635463	
1.6994525396481846E12	1.3846150697805568	
1.6994525396491611E12	1.3878605430754674	
1.6994525396501375E12	1.38353324534892	
1.6994525396511138E12	1.3872595295023358	
1.69945253965209E12	1.3841342589220516	
1.6994525396530664E12	1.38124939377102	
1.6994525396540427E12	1.3859372996414463	
1.6994525396550193E12	1.38353324534892	
1.6994525396559956E12	1.383172637205041	
1.699452539656972E12	1.3846150697805568	
1.6994525396579482E12	1.3870191240730831	
1.6994525396589246E12	1.3866585159292042	
1.699452539659901E12	1.388461556648599	
1.6994525396608774E12	1.3889423675071042	
1.6994525396618538E12	1.3847352724951831	
1.69945253966283E12	1.3848554752098095	
1.6994525396638064E12	1.386177705070699	
1.6994525396647827E12	1.3889423675071042	
1.699452539665759E12	1.3860575023560726	
1.6994525396667356E12	1.3842544616366779	
1.699452539667712E12	1.3813695964856463	
1.6994525396686882E12	1.3823312182026568	
1.6994525396696646E12	1.3860575023560726	
1.6994525396706409E12	1.3847352724951831	
1.6994525396716172E12	1.3806483801978884	
1.6994525396725938E12	1.3844948670659305	
1.69945253967357E12	1.378725136763867	
1.6994525396745464E12	1.381610001914899	
1.6994525396755227E12	1.3820908127734042	
1.699452539676499E12	1.3788453394784934	
1.6994525396774753E12	1.3817302046295252	
1.699452539678452E12	1.3799271639101303	
1.6994525396794282E12	1.38581709692682	
1.6994525396804045E12	1.382812029061162	
1.6994525396813809E12	1.3818504073441515	
1.6994525396823572E12	1.38353324534892	
1.6994525396833335E12	1.3824514209172831	
1.69945253968431E12	1.38353324534892	
1.6994525396852864E12	1.3871393267877095	
1.6994525396862627E12	1.38581709692682	
1.699452539687239E12	1.3894231783656095	
1.6994525396882153E12	1.3899039892241147	
1.6994525396891917E12	1.3830524344904147	
1.6994525396901682E12	1.3840140562074252	
1.6994525396911445E12	1.383172637205041	
1.6994525396921208E12	1.3843746643513042	
1.6994525396930972E12	1.3909858136557516	
1.6994525396940735E12	1.3830524344904147	
1.6994525396950498E12	1.386177705070699	
1.6994525396960264E12	1.3834130426342937	
1.6994525396970027E12	1.3843746643513042	
1.699452539697979E12	1.3844948670659305	
1.6994525396989553E12	1.3841342589220516	
1.6994525396999316E12	1.386177705070699	
1.699452539700908E12	1.385095880639062	
1.6994525397018845E12	1.3810089883417673	
1.6994525397028608E12	1.3806483801978884	
1.6994525397038372E12	1.382812029061162	
1.6994525397048135E12	1.3799271639101303	
1.6994525397057898E12	1.3820908127734042	
1.699452539706766E12	1.383172637205041	
1.6994525397077427E12	1.3806483801978884	
1.699452539708719E12	1.383172637205041	
1.6994525397096953E12	1.3849756779244358	
1.6994525397106716E12	1.3799271639101303	
1.699452539711648E12	1.3843746643513042	
1.6994525397126243E12	1.3867787186438305	
1.6994525397136008E12	1.3872595295023358	
1.6994525397145771E12	1.3825716236319094	
1.6994525397155535E12	1.38353324534892	
1.6994525397165298E12	1.385095880639062	
1.699452539717506E12	1.3864181104999516	
1.6994525397184824E12	1.3829322317757884	
1.699452539719459E12	1.3870191240730831	
1.6994525397204353E12	1.3832928399196673	
1.6994525397214116E12	1.3842544616366779	
1.699452539722388E12	1.3865383132145779	
1.6994525397233643E12	1.383172637205041	
1.6994525397243406E12	1.3879807457900937	
1.6994525397253171E12	1.3870191240730831	
1.6994525397262935E12	1.385456488782941	
1.6994525397272698E12	1.3847352724951831	
1.699452539728246E12	1.3820908127734042	
1.6994525397292224E12	1.38581709692682	
1.6994525397301987E12	1.3855766914975673	
1.6994525397311753E12	1.3862979077853252	
1.6994525397321516E12	1.3820908127734042	
1.699452539733128E12	1.3843746643513042	
1.6994525397341042E12	1.3844948670659305	
1.6994525397350806E12	1.385095880639062	
1.699452539736057E12	1.3843746643513042	
1.6994525397370334E12	1.385095880639062	
1.6994525397380098E12	1.3856968942121937	
1.699452539738986E12	1.3806483801978884	
1.6994525397399624E12	1.3806483801978884	
1.6994525397409387E12	1.3830524344904147	
1.699452539741915E12	1.383172637205041	
1.6994525397428916E12	1.3837736507781726	
1.699452539743868E12	1.3824514209172831	
1.6994525397448442E12	1.383893853492799	
1.6994525397458206E12	1.3853362860683147	
1.6994525397467969E12	1.3840140562074252	
1.6994525397477732E12	1.3825716236319094	
1.6994525397487498E12	1.3786049340492408	
1.699452539749726E12	1.3872595295023358	
1.6994525397507024E12	1.3825716236319094	
1.6994525397516787E12	1.3825716236319094	
1.699452539752655E12	1.3830524344904147	
1.6994525397536313E12	1.3826918263465358	
1.699452539754608E12	1.3825716236319094	
1.6994525397555842E12	1.3824514209172831	
1.6994525397565605E12	1.380888785627141	
1.6994525397575369E12	1.3805281774832618	
1.6994525397585132E12	1.3848554752098095	
1.6994525397594895E12	1.3824514209172831	
1.699452539760466E12	1.3834130426342937	
1.6994525397614424E12	1.3830524344904147	
1.6994525397624187E12	1.3806483801978884	
1.699452539763395E12	1.3793261503369987	
1.6994525397643713E12	1.3840140562074252	
1.6994525397653477E12	1.3837736507781726	
1.6994525397663242E12	1.3830524344904147	
1.6994525397673005E12	1.3823312182026568	
1.6994525397682769E12	1.3793261503369987	
1.6994525397692532E12	1.380888785627141	
1.6994525397702295E12	1.3818504073441515	
1.6994525397712058E12	1.3846150697805568	
1.6994525397721824E12	1.3822110154880305	
1.6994525397731587E12	1.383172637205041	
1.699452539774135E12	1.3832928399196673	
1.6994525397751113E12	1.3834130426342937	
1.6994525397760876E12	1.38353324534892	
1.699452539777064E12	1.3846150697805568	
1.6994525397780405E12	1.3840140562074252	
1.6994525397790168E12	1.3820908127734042	
1.6994525397799932E12	1.3826918263465358	
1.6994525397809695E12	1.3800473666247566	
1.6994525397819458E12	1.3822110154880305	
1.699452539782922E12	1.3829322317757884	
1.6994525397838987E12	1.3852160833536884	
1.699452539784875E12	1.3849756779244358	
1.6994525397858513E12	1.3800473666247566	
1.6994525397868276E12	1.3824514209172831	
1.699452539787804E12	1.3842544616366779	
1.6994525397887803E12	1.3795665557662513	
1.6994525397897568E12	1.3813695964856463	
1.6994525397907332E12	1.3846150697805568	
1.6994525397917095E12	1.3789655421931197	
1.6994525397926858E12	1.3792059476223724	
1.699452539793662E12	1.3806483801978884	
1.6994525397946384E12	1.3806483801978884	
1.699452539795615E12	1.3774029069029776	
1.6994525397965913E12	1.381610001914899	
1.6994525397975676E12	1.3796867584808776	
1.699452539798544E12	1.377523109617604	
1.6994525397995203E12	1.3743978390373197	
1.6994525398004966E12	1.3776433123322303	
1.6994525398014731E12	1.381610001914899	
1.6994525398024495E12	1.3774029069029776	
1.6994525398034258E12	1.3793261503369987	
1.699452539804402E12	1.3751190553250776	
1.6994525398053784E12	1.376801893329846	
1.6994525398063547E12	1.3793261503369987	
1.6994525398073313E12	1.379085744907746	
1.6994525398083076E12	1.3784847313346145	
1.699452539809284E12	1.3774029069029776	
1.6994525398102603E12	1.3804079747686355	
1.6994525398112366E12	1.3818504073441515	
1.699452539812213E12	1.3811291910563936	
1.6994525398131895E12	1.379446353051625	
1.6994525398141658E12	1.3829322317757884	
1.699452539815142E12	1.3825716236319094	
1.6994525398161184E12	1.3806483801978884	
1.6994525398170947E12	1.3819706100587779	
1.699452539818071E12	1.3811291910563936	
1.6994525398190476E12	1.3844948670659305	
1.699452539820024E12	1.379806961195504	
1.6994525398210002E12	1.383893853492799	
1.6994525398219766E12	1.3841342589220516	
1.699452539822953E12	1.3802877720540092	
1.6994525398239292E12	1.3846150697805568	
1.6994525398249058E12	1.3848554752098095	
1.699452539825882E12	1.3865383132145779	
1.6994525398268584E12	1.385095880639062	
1.6994525398278347E12	1.3805281774832618	
1.699452539828811E12	1.3864181104999516	
1.6994525398297876E12	1.3832928399196673	
1.699452539830764E12	1.3834130426342937	
1.6994525398317402E12	1.3810089883417673	
1.6994525398327166E12	1.376801893329846	
1.6994525398336929E12	1.3788453394784934	
1.6994525398346692E12	1.3800473666247566	
1.6994525398356458E12	1.3837736507781726	
1.699452539836622E12	1.3840140562074252	
1.6994525398375984E12	1.3811291910563936	
1.6994525398385747E12	1.3826918263465358	
1.699452539839551E12	1.3888221647924779	
1.6994525398405273E12	1.3807685829125147	
1.699452539841504E12	1.3856968942121937	
1.6994525398424802E12	1.3830524344904147	
1.6994525398434565E12	1.3829322317757884	
1.6994525398444329E12	1.3804079747686355	
1.6994525398454092E12	1.3832928399196673	
1.6994525398463855E12	1.383893853492799	
1.699452539847362E12	1.3870191240730831	
1.6994525398483384E12	1.3846150697805568	
1.6994525398493147E12	1.3849756779244358	
1.699452539850291E12	1.3843746643513042	
1.6994525398512673E12	1.38581709692682	
1.6994525398522437E12	1.3865383132145779	
1.6994525398532202E12	1.3807685829125147	
1.6994525398541965E12	1.3852160833536884	
1.6994525398551729E12	1.385095880639062	
1.6994525398561492E12	1.3818504073441515	
1.6994525398571255E12	1.3836534480635463	
1.6994525398581018E12	1.3864181104999516	
1.6994525398590784E12	1.3897837865094884	
1.6994525398600547E12	1.3883413539339726	
1.699452539861031E12	1.3840140562074252	
1.6994525398620073E12	1.3864181104999516	
1.6994525398629836E12	1.3868989213584568	
1.69945253986396E12	1.3879807457900937	
1.6994525398649365E12	1.3856968942121937	
1.6994525398659128E12	1.3895433810802358	
1.6994525398668892E12	1.3843746643513042	
1.6994525398678655E12	1.3862979077853252	
1.6994525398688418E12	1.3870191240730831	
1.699452539869818E12	1.379446353051625	
1.6994525398707947E12	1.3829322317757884	
1.699452539871771E12	1.3848554752098095	
1.6994525398727473E12	1.3848554752098095	
1.6994525398737236E12	1.3840140562074252	
1.6994525398747E12	1.383893853492799	
1.6994525398756763E12	1.3887019620778516	
1.6994525398766528E12	1.383172637205041	
1.6994525398776292E12	1.3824514209172831	
1.6994525398786055E12	1.3825716236319094	
1.6994525398795818E12	1.3820908127734042	
1.699452539880558E12	1.3792059476223724	
1.6994525398815344E12	1.3848554752098095	
1.699452539882511E12	1.3846150697805568	
1.6994525398834873E12	1.3870191240730831	
1.6994525398844636E12	1.3849756779244358	
1.69945253988544E12	1.380888785627141	
1.6994525398864163E12	1.38581709692682	
1.6994525398873926E12	1.3830524344904147	
1.6994525398883691E12	1.3867787186438305	
1.6994525398893455E12	1.3813695964856463	
1.6994525398903218E12	1.3796867584808776	
1.699452539891298E12	1.3834130426342937	
1.6994525398922744E12	1.38581709692682	
1.6994525398932507E12	1.3817302046295252	
1.6994525398942273E12	1.3825716236319094	
1.6994525398952036E12	1.3810089883417673	
1.69945253989618E12	1.3810089883417673	
1.6994525398971562E12	1.3777635150468566	
1.6994525398981326E12	1.3784847313346145	
1.699452539899109E12	1.3780039204761092	
1.6994525399000854E12	1.379806961195504	
1.6994525399010618E12	1.38124939377102	
1.699452539902038E12	1.376441285185967	
1.6994525399030144E12	1.3782443259053618	
1.6994525399039907E12	1.3811291910563936	
1.699452539904967E12	1.3804079747686355	
1.6994525399059436E12	1.3796867584808776	
1.69945253990692E12	1.3772827041883513	
1.6994525399078962E12	1.3800473666247566	
1.6994525399088726E12	1.379446353051625	
1.6994525399098489E12	1.3806483801978884	
1.6994525399108252E12	1.3818504073441515	
1.6994525399118018E12	1.3804079747686355	
1.699452539912778E12	1.3789655421931197	
1.6994525399137544E12	1.377162501473725	
1.6994525399147307E12	1.379085744907746	
1.699452539915707E12	1.3783645286199881	
1.6994525399166833E12	1.3772827041883513	
1.69945253991766E12	1.3810089883417673	
1.6994525399186362E12	1.3792059476223724	
1.6994525399196125E12	1.380888785627141	
1.6994525399205889E12	1.3783645286199881	
1.6994525399215652E12	1.377523109617604	
1.6994525399225415E12	1.3770422987590987	
1.699452539923518E12	1.3783645286199881	
1.6994525399244944E12	1.379806961195504	
1.6994525399254707E12	1.3723543928886723	
1.699452539926447E12	1.374878649895825	
1.6994525399274233E12	1.3713927711716618	
1.6994525399283997E12	1.374518041751946	
1.6994525399293762E12	1.372234190174046	
1.6994525399303525E12	1.3721139874594197	
1.6994525399313289E12	1.3697099331668934	
1.6994525399323052E12	1.367305878874367	
1.6994525399332815E12	1.365022027296467	
1.6994525399342578E12	1.3656230408695986	
1.6994525399352344E12	1.3709119603131565	
1.6994525399362107E12	1.3663442571573565	
1.699452539937187E12	1.3681472978767513	
1.6994525399381633E12	1.3662240544427302	
1.6994525399391396E12	1.3665846625866092	
1.699452539940116E12	1.3636997974355773	
1.6994525399410925E12	1.3670654734451144	
1.6994525399420688E12	1.3691089195937618	
1.6994525399430452E12	1.3677866897328723	
1.6994525399440215E12	1.3712725684570355	
1.6994525399449978E12	1.3704311494546513	
1.699452539945974E12	1.3685079060206302	
1.6994525399469507E12	1.3689887168791355	
1.699452539947927E12	1.3707917575985302	
1.6994525399489033E12	1.371873582030167	
1.6994525399498796E12	1.370671554883904	
1.699452539950856E12	1.3766816906152197	
1.6994525399518323E12	1.3730756091764302	
1.6994525399528088E12	1.374518041751946	
1.6994525399537852E12	1.3670654734451144	
1.6994525399547615E12	1.3698301358815197	
1.6994525399557378E12	1.3742776363226934	
1.699452539956714E12	1.3739170281788144	
1.6994525399576904E12	1.3754796634689566	
1.699452539958667E12	1.3755998661835829	
1.6994525399596433E12	1.3735564200349355	
1.6994525399606196E12	1.3734362173203092	
1.699452539961596E12	1.3765614879005934	
1.6994525399625723E12	1.3746382444665723	
1.6994525399635486E12	1.3757200688982092	
1.6994525399645251E12	1.3755998661835829	
1.6994525399655015E12	1.3742776363226934	
1.6994525399664778E12	1.3782443259053618	
1.699452539967454E12	1.377523109617604	
1.6994525399684304E12	1.375239258039704	
1.6994525399694067E12	1.3755998661835829	
1.6994525399703833E12	1.3758402716128355	
1.6994525399713596E12	1.376801893329846	
1.699452539972336E12	1.374518041751946	
1.6994525399733123E12	1.3758402716128355	
1.6994525399742886E12	1.3783645286199881	
1.699452539975265E12	1.3765614879005934	
1.6994525399762415E12	1.3765614879005934	
1.6994525399772178E12	1.3799271639101303	
1.699452539978194E12	1.3777635150468566	
1.6994525399791704E12	1.375239258039704	
1.6994525399801467E12	1.3737968254641881	
1.699452539981123E12	1.3813695964856463	
1.6994525399820996E12	1.3769220960444724	
1.699452539983076E12	1.3811291910563936	
1.6994525399840522E12	1.3784847313346145	
1.6994525399850286E12	1.3792059476223724	
1.699452539986005E12	1.3789655421931197	
1.6994525399869812E12	1.3792059476223724	
1.6994525399879578E12	1.382812029061162	
1.699452539988934E12	1.3807685829125147	
1.6994525399899104E12	1.3818504073441515	
1.6994525399908867E12	1.380167569339383	
1.699452539991863E12	1.3776433123322303	
1.6994525399928394E12	1.3817302046295252	
1.699452539993816E12	1.3823312182026568	
1.6994525399947922E12	1.3830524344904147	
1.6994525399957686E12	1.38124939377102	
1.6994525399967449E12	1.3806483801978884	
1.6994525399977212E12	1.377523109617604	
1.6994525399986975E12	1.3783645286199881	
1.699452539999674E12	1.3776433123322303	
1.6994525400006504E12	1.3765614879005934	
1.6994525400016267E12	1.3762008797567145	
1.699452540002603E12	1.3783645286199881	
1.6994525400035793E12	1.3783645286199881	
1.6994525400045557E12	1.3819706100587779	
1.6994525400055322E12	1.3806483801978884	
1.6994525400065085E12	1.3772827041883513	
1.6994525400074849E12	1.3788453394784934	
1.6994525400084612E12	1.374157433608067	
1.6994525400094375E12	1.3712725684570355	
1.6994525400104138E12	1.376801893329846	
1.6994525400113904E12	1.3730756091764302	
1.6994525400123667E12	1.3763210824713408	
1.699452540013343E12	1.3766816906152197	
1.6994525400143193E12	1.3777635150468566	
1.6994525400152957E12	1.377162501473725	
1.699452540016272E12	1.374878649895825	
1.6994525400172485E12	1.3757200688982092	
1.6994525400182249E12	1.3736766227495618	
1.6994525400192012E12	1.3795665557662513	
1.6994525400201775E12	1.3799271639101303	
1.6994525400211538E12	1.3784847313346145	
1.6994525400221301E12	1.378725136763867	
1.6994525400231067E12	1.3781241231907355	
1.699452540024083E12	1.3739170281788144	
1.6994525400250593E12	1.374518041751946	
1.6994525400260356E12	1.377523109617604	
1.699452540027012E12	1.3769220960444724	
1.6994525400279883E12	1.377162501473725	
1.6994525400289648E12	1.3735564200349355	
1.6994525400299412E12	1.3762008797567145	
1.6994525400309175E12	1.380167569339383	
1.6994525400318938E12	1.3810089883417673	
1.69945254003287E12	1.3807685829125147	
1.6994525400338464E12	1.3759604743274618	
1.699452540034823E12	1.3822110154880305	
1.6994525400357993E12	1.3789655421931197	
1.6994525400367756E12	1.3800473666247566	
1.699452540037752E12	1.3783645286199881	
1.6994525400387283E12	1.3795665557662513	
1.6994525400397046E12	1.3829322317757884	
1.6994525400406812E12	1.3823312182026568	
1.6994525400416575E12	1.3847352724951831	
1.6994525400426338E12	1.3822110154880305	
1.69945254004361E12	1.3853362860683147	
1.6994525400445864E12	1.38124939377102	
1.6994525400455627E12	1.3868989213584568	
1.6994525400465393E12	1.3855766914975673	
1.6994525400475156E12	1.3829322317757884	
1.699452540048492E12	1.382812029061162	
1.6994525400494683E12	1.3822110154880305	
1.6994525400504446E12	1.383893853492799	
1.699452540051421E12	1.383172637205041	
1.6994525400523975E12	1.3805281774832618	
1.6994525400533738E12	1.383893853492799	
1.69945254005435E12	1.3848554752098095	
1.6994525400553264E12	1.3829322317757884	
1.6994525400563027E12	1.3777635150468566	
1.699452540057279E12	1.3805281774832618	
1.6994525400582556E12	1.3810089883417673	
1.699452540059232E12	1.3824514209172831	
1.6994525400602083E12	1.3817302046295252	
1.6994525400611846E12	1.386177705070699	
1.699452540062161E12	1.3841342589220516	
1.6994525400631372E12	1.3847352724951831	
1.6994525400641138E12	1.3872595295023358	
1.69945254006509E12	1.3836534480635463	
1.6994525400660664E12	1.3819706100587779	
1.6994525400670427E12	1.3860575023560726	
1.699452540068019E12	1.3864181104999516	
1.6994525400689954E12	1.3849756779244358	
1.699452540069972E12	1.383893853492799	
1.6994525400709482E12	1.3826918263465358	
1.6994525400719246E12	1.383172637205041	
1.699452540072901E12	1.3814897992002726	
1.6994525400738772E12	1.3871393267877095	
1.6994525400748535E12	1.3817302046295252	
1.69945254007583E12	1.3800473666247566	
1.6994525400768064E12	1.3780039204761092	
1.6994525400777827E12	1.3807685829125147	
1.699452540078759E12	1.3829322317757884	
1.6994525400797354E12	1.3824514209172831	
1.6994525400807117E12	1.3778837177614829	
1.6994525400816882E12	1.380888785627141	
1.6994525400826646E12	1.377523109617604	
1.6994525400836409E12	1.3824514209172831	
1.6994525400846172E12	1.3814897992002726	
1.6994525400855935E12	1.3814897992002726	
1.6994525400865698E12	1.3795665557662513	
1.6994525400875464E12	1.3799271639101303	
1.6994525400885227E12	1.3781241231907355	
1.699452540089499E12	1.3799271639101303	
1.6994525400904753E12	1.3772827041883513	
1.6994525400914517E12	1.3793261503369987	
1.699452540092428E12	1.3759604743274618	
1.6994525400934045E12	1.380888785627141	
1.6994525400943809E12	1.3776433123322303	
1.6994525400953572E12	1.38124939377102	
1.6994525400963335E12	1.3811291910563936	
1.6994525400973098E12	1.3810089883417673	
1.6994525400982861E12	1.3802877720540092	
1.6994525400992627E12	1.3795665557662513	
1.699452540100239E12	1.3793261503369987	
1.6994525401012153E12	1.3805281774832618	
1.6994525401021917E12	1.3804079747686355	
1.699452540103168E12	1.3813695964856463	
1.6994525401041443E12	1.38124939377102	
1.6994525401051208E12	1.381610001914899	
1.6994525401060972E12	1.3818504073441515	
1.6994525401070735E12	1.383172637205041	
1.6994525401080498E12	1.3814897992002726	
1.6994525401090261E12	1.3805281774832618	
1.6994525401100024E12	1.3818504073441515	
1.699452540110979E12	1.3777635150468566	
1.6994525401119553E12	1.379085744907746	
1.6994525401129316E12	1.3765614879005934	
1.699452540113908E12	1.3799271639101303	
1.6994525401148843E12	1.374157433608067	
1.6994525401158606E12	1.3758402716128355	
1.6994525401168372E12	1.3802877720540092	
1.6994525401178135E12	1.38124939377102	
1.6994525401187898E12	1.3795665557662513	
1.699452540119766E12	1.380167569339383	
1.6994525401207424E12	1.3793261503369987	
1.699452540121719E12	1.3806483801978884	
1.6994525401226953E12	1.3777635150468566	
1.6994525401236716E12	1.379085744907746	
1.699452540124648E12	1.3783645286199881	
1.6994525401256243E12	1.3807685829125147	
1.6994525401266006E12	1.3740372308934408	
1.6994525401275771E12	1.3806483801978884	
1.6994525401285535E12	1.3777635150468566	
1.6994525401295298E12	1.3799271639101303	
1.699452540130506E12	1.3802877720540092	
1.6994525401314824E12	1.3772827041883513	
1.6994525401324587E12	1.3786049340492408	
1.6994525401334353E12	1.3805281774832618	
1.6994525401344116E12	1.379806961195504	
1.699452540135388E12	1.3795665557662513	
1.6994525401363643E12	1.3781241231907355	
1.6994525401373406E12	1.3778837177614829	
1.699452540138317E12	1.380167569339383	
1.6994525401392935E12	1.3780039204761092	
1.6994525401402698E12	1.3781241231907355	
1.699452540141246E12	1.3830524344904147	
1.6994525401422224E12	1.3793261503369987	
1.6994525401431987E12	1.378725136763867	
1.699452540144175E12	1.3751190553250776	
1.6994525401451516E12	1.3778837177614829	
1.699452540146128E12	1.3733160146056829	
1.6994525401471042E12	1.377162501473725	
1.6994525401480806E12	1.3777635150468566	
1.699452540149057E12	1.3770422987590987	
1.6994525401500332E12	1.3759604743274618	
1.6994525401510098E12	1.3786049340492408	
1.699452540151986E12	1.3789655421931197	
1.6994525401529624E12	1.379085744907746	
1.6994525401539387E12	1.3757200688982092	
1.699452540154915E12	1.3778837177614829	
1.6994525401558914E12	1.376441285185967	
1.699452540156868E12	1.3765614879005934	
1.6994525401578442E12	1.3799271639101303	
1.6994525401588206E12	1.3777635150468566	
1.6994525401597969E12	1.3792059476223724	
1.6994525401607732E12	1.376441285185967	
1.6994525401617495E12	1.376801893329846	
1.699452540162726E12	1.3786049340492408	
1.6994525401637024E12	1.3740372308934408	
1.6994525401646787E12	1.3778837177614829	
1.699452540165655E12	1.376801893329846	
1.6994525401666313E12	1.3766816906152197	
1.6994525401676077E12	1.3757200688982092	
1.6994525401685842E12	1.3765614879005934	
1.6994525401695605E12	1.3766816906152197	
1.6994525401705369E12	1.3760806770420881	
1.6994525401715132E12	1.3789655421931197	
1.6994525401724895E12	1.3730756091764302	
1.6994525401734658E12	1.3740372308934408	
1.6994525401744424E12	1.375239258039704	
1.6994525401754187E12	1.372594798317925	
1.699452540176395E12	1.3780039204761092	
1.6994525401773713E12	1.3777635150468566	
1.6994525401783477E12	1.3747584471811987	
1.699452540179324E12	1.3754796634689566	
1.6994525401803005E12	1.3762008797567145	
1.6994525401812769E12	1.376801893329846	
1.6994525401822532E12	1.3751190553250776	
1.6994525401832295E12	1.375239258039704	
1.6994525401842058E12	1.3788453394784934	
1.6994525401851821E12	1.3789655421931197	
1.6994525401861587E12	1.3814897992002726	
1.699452540187135E12	1.376801893329846	
1.6994525401881113E12	1.3806483801978884	
1.6994525401890876E12	1.379446353051625	
1.699452540190064E12	1.381610001914899	
1.6994525401910403E12	1.381610001914899	
1.6994525401920168E12	1.3763210824713408	
1.6994525401929932E12	1.3784847313346145	
1.6994525401939695E12	1.3746382444665723	
1.6994525401949458E12	1.3766816906152197	
1.699452540195922E12	1.3759604743274618	
1.6994525401968984E12	1.3802877720540092	
1.699452540197875E12	1.3796867584808776	
1.6994525401988513E12	1.379446353051625	
1.6994525401998276E12	1.3770422987590987	
1.699452540200804E12	1.3778837177614829	
1.6994525402017803E12	1.3765614879005934	
1.6994525402027566E12	1.3795665557662513	
1.6994525402037332E12	1.382812029061162	
1.6994525402047095E12	1.376441285185967	
1.6994525402056858E12	1.377162501473725	
1.699452540206662E12	1.378725136763867	
1.6994525402076384E12	1.3759604743274618	
1.6994525402086147E12	1.376801893329846	
1.6994525402095913E12	1.3749988526104513	
1.6994525402105676E12	1.3753594607543302	
1.699452540211544E12	1.3746382444665723	
1.6994525402125203E12	1.3739170281788144	
1.6994525402134966E12	1.377162501473725	
1.699452540214473E12	1.3762008797567145	
1.6994525402154495E12	1.3739170281788144	
1.6994525402164258E12	1.3755998661835829	
1.699452540217402E12	1.3817302046295252	
1.6994525402183784E12	1.3780039204761092	
1.6994525402193547E12	1.3772827041883513	
1.699452540220331E12	1.3807685829125147	
1.6994525402213076E12	1.3784847313346145	
1.699452540222284E12	1.3755998661835829	
1.6994525402232603E12	1.3751190553250776	
1.6994525402242366E12	1.3782443259053618	
1.699452540225213E12	1.380167569339383	
1.6994525402261892E12	1.3800473666247566	
1.6994525402271658E12	1.3810089883417673	
1.699452540228142E12	1.379085744907746	
1.6994525402291184E12	1.3769220960444724	
1.6994525402300947E12	1.3763210824713408	
1.699452540231071E12	1.3783645286199881	
1.6994525402320474E12	1.3751190553250776	
1.699452540233024E12	1.3753594607543302	
1.6994525402340002E12	1.378725136763867	
1.6994525402349766E12	1.3758402716128355	
1.699452540235953E12	1.3806483801978884	
1.6994525402369292E12	1.380167569339383	
1.6994525402379055E12	1.3782443259053618	
1.699452540238882E12	1.3783645286199881	
1.6994525402398584E12	1.3788453394784934	
1.6994525402408347E12	1.3792059476223724	
1.699452540241811E12	1.3814897992002726	
1.6994525402427874E12	1.379085744907746	
1.6994525402437637E12	1.377523109617604	
1.6994525402447402E12	1.3820908127734042	
1.6994525402457166E12	1.381610001914899	
1.6994525402466929E12	1.3795665557662513	
1.6994525402476692E12	1.3781241231907355	
1.6994525402486455E12	1.38124939377102	
1.6994525402496218E12	1.381610001914899	
1.6994525402505984E12	1.3782443259053618	
1.6994525402515747E12	1.3754796634689566	
1.699452540252551E12	1.378725136763867	
1.6994525402535273E12	1.3813695964856463	
1.6994525402545037E12	1.379806961195504	
1.69945254025548E12	1.379446353051625	
1.6994525402564565E12	1.3788453394784934	
1.6994525402574329E12	1.3772827041883513	
1.6994525402584092E12	1.3758402716128355	
1.6994525402593855E12	1.376441285185967	
1.6994525402603618E12	1.3788453394784934	
1.6994525402613381E12	1.3782443259053618	
1.6994525402623147E12	1.3780039204761092	
1.699452540263291E12	1.375239258039704	
1.6994525402642673E12	1.3753594607543302	
1.6994525402652437E12	1.3784847313346145	
1.69945254026622E12	1.378725136763867	
1.6994525402671963E12	1.379085744907746	
1.6994525402681729E12	1.3793261503369987	
1.6994525402691492E12	1.3817302046295252	
1.6994525402701255E12	1.38124939377102	
1.6994525402711018E12	1.3784847313346145	
1.6994525402720781E12	1.3786049340492408	
1.6994525402730544E12	1.3766816906152197	
1.699452540274031E12	1.376441285185967	
1.6994525402750073E12	1.3735564200349355	
1.6994525402759836E12	1.3763210824713408	
1.69945254027696E12	1.377162501473725	
1.6994525402779363E12	1.3777635150468566	
1.6994525402789126E12	1.3780039204761092	
1.6994525402798892E12	1.3757200688982092	
1.6994525402808655E12	1.3802877720540092	
1.6994525402818418E12	1.3757200688982092	
1.699452540282818E12	1.3751190553250776	
1.6994525402837944E12	1.374518041751946	
1.6994525402847708E12	1.374878649895825	
1.6994525402857473E12	1.3763210824713408	
1.6994525402867236E12	1.3776433123322303	
1.6994525402877E12	1.3793261503369987	
1.6994525402886763E12	1.374518041751946	
1.6994525402896526E12	1.3742776363226934	
1.699452540290629E12	1.3762008797567145	
1.6994525402916055E12	1.3762008797567145	
1.6994525402925818E12	1.3755998661835829	
1.699452540293558E12	1.3743978390373197	
1.6994525402945344E12	1.3724745956032987	
1.6994525402955107E12	1.3759604743274618	
1.699452540296487E12	1.377523109617604	
1.6994525402974636E12	1.3739170281788144	
1.69945254029844E12	1.3723543928886723	
1.6994525402994163E12	1.3733160146056829	
1.6994525403003926E12	1.3796867584808776	
1.699452540301369E12	1.3774029069029776	
1.6994525403023452E12	1.375239258039704	
1.6994525403033218E12	1.3789655421931197	
1.699452540304298E12	1.3743978390373197	
1.6994525403052744E12	1.3778837177614829	
1.6994525403062507E12	1.378725136763867	
1.699452540307227E12	1.3753594607543302	
1.6994525403082034E12	1.3763210824713408	
1.69945254030918E12	1.377523109617604	
1.6994525403101562E12	1.3755998661835829	
1.6994525403111326E12	1.3772827041883513	
1.699452540312109E12	1.3742776363226934	
1.6994525403130852E12	1.3770422987590987	
1.6994525403140615E12	1.375239258039704	
1.699452540315038E12	1.3793261503369987	
1.6994525403160144E12	1.378725136763867	
1.6994525403169907E12	1.376441285185967	
1.699452540317967E12	1.3763210824713408	
1.6994525403189434E12	1.375239258039704	
1.6994525403199197E12	1.3715129738862881	
1.6994525403208962E12	1.3760806770420881	
1.6994525403218726E12	1.3777635150468566	
1.6994525403228489E12	1.3758402716128355	
1.6994525403238252E12	1.378725136763867	
1.6994525403248015E12	1.3743978390373197	
1.6994525403257778E12	1.379085744907746	
1.6994525403267544E12	1.3765614879005934	
1.6994525403277307E12	1.3810089883417673	
1.699452540328707E12	1.378725136763867	
1.6994525403296833E12	1.3814897992002726	
1.6994525403306597E12	1.3799271639101303	
1.699452540331636E12	1.380888785627141	
1.6994525403326125E12	1.38124939377102	
1.6994525403335889E12	1.3813695964856463	
1.6994525403345652E12	1.3807685829125147	
1.6994525403355415E12	1.381610001914899	
1.6994525403365178E12	1.3793261503369987	
1.6994525403374941E12	1.3814897992002726	
1.6994525403384707E12	1.379085744907746	
1.699452540339447E12	1.382812029061162	
1.6994525403404233E12	1.3825716236319094	
1.6994525403413997E12	1.3829322317757884	
1.699452540342376E12	1.3837736507781726	
1.6994525403433523E12	1.3844948670659305	
1.6994525403443289E12	1.3810089883417673	
1.6994525403453052E12	1.3825716236319094	
1.6994525403462815E12	1.3817302046295252	
1.6994525403472578E12	1.385456488782941	
1.6994525403482341E12	1.3805281774832618	
1.6994525403492104E12	1.38353324534892	
1.699452540350187E12	1.3805281774832618	
1.6994525403511633E12	1.3788453394784934	
1.6994525403521396E12	1.3855766914975673	
1.699452540353116E12	1.3862979077853252	
1.6994525403540923E12	1.38353324534892	
1.6994525403550686E12	1.3822110154880305	
1.6994525403560452E12	1.3843746643513042	
1.6994525403570215E12	1.385095880639062	
1.6994525403579978E12	1.3843746643513042	
1.699452540358974E12	1.3825716236319094	
1.6994525403599504E12	1.3830524344904147	
1.6994525403609268E12	1.3823312182026568	
1.6994525403619033E12	1.3844948670659305	
1.6994525403628796E12	1.3842544616366779	
1.699452540363856E12	1.387740340360841	
1.6994525403648323E12	1.3842544616366779	
1.6994525403658086E12	1.3852160833536884	
1.699452540366785E12	1.387379732216962	
1.6994525403677615E12	1.3852160833536884	
1.6994525403687378E12	1.3844948670659305	
1.699452540369714E12	1.3852160833536884	
1.6994525403706904E12	1.385095880639062	
1.6994525403716667E12	1.385095880639062	
1.699452540372643E12	1.3804079747686355	
1.6994525403736196E12	1.3870191240730831	
1.699452540374596E12	1.38581709692682	
1.6994525403755723E12	1.383172637205041	
1.6994525403765486E12	1.3856968942121937	
1.699452540377525E12	1.3860575023560726	
1.6994525403785012E12	1.382812029061162	
1.6994525403794778E12	1.3800473666247566	
1.699452540380454E12	1.3849756779244358	
1.6994525403814304E12	1.3823312182026568	
1.6994525403824067E12	1.381610001914899	
1.699452540383383E12	1.3855766914975673	
1.6994525403843594E12	1.3847352724951831	
1.699452540385336E12	1.3852160833536884	
1.6994525403863123E12	1.3844948670659305	
1.6994525403872886E12	1.3878605430754674	
1.699452540388265E12	1.3853362860683147	
1.6994525403892412E12	1.3847352724951831	
1.6994525403902175E12	1.3895433810802358	
1.699452540391194E12	1.385456488782941	
1.6994525403921704E12	1.3859372996414463	
1.6994525403931467E12	1.3866585159292042	
1.699452540394123E12	1.3852160833536884	
1.6994525403950994E12	1.3878605430754674	
1.6994525403960757E12	1.387740340360841	
1.6994525403970522E12	1.387379732216962	
1.6994525403980286E12	1.388461556648599	
1.699452540399005E12	1.3868989213584568	
1.6994525403999812E12	1.3878605430754674	
1.6994525404009575E12	1.386177705070699	
1.6994525404019338E12	1.3871393267877095	
1.6994525404029104E12	1.3870191240730831	
1.6994525404038867E12	1.3878605430754674	
1.699452540404863E12	1.383172637205041	
1.6994525404058394E12	1.3878605430754674	
1.6994525404068157E12	1.389663583794862	
1.699452540407792E12	1.3897837865094884	
1.6994525404087686E12	1.3901443946533674	
1.6994525404097449E12	1.3915868272288832	
1.6994525404107212E12	1.3889423675071042	
1.6994525404116975E12	1.3868989213584568	
1.6994525404126738E12	1.3799271639101303	
1.6994525404136501E12	1.3826918263465358	
1.6994525404146267E12	1.3852160833536884	
1.699452540415603E12	1.3862979077853252	
1.6994525404165793E12	1.3865383132145779	
1.6994525404175557E12	1.3867787186438305	
1.699452540418532E12	1.3862979077853252	
1.6994525404195085E12	1.3899039892241147	
1.6994525404204849E12	1.3878605430754674	
1.6994525404214612E12	1.3894231783656095	
1.6994525404224375E12	1.38581709692682	
1.6994525404234138E12	1.3849756779244358	
1.6994525404243901E12	1.3856968942121937	
1.6994525404253667E12	1.3843746643513042	
1.699452540426343E12	1.3860575023560726	
1.6994525404273193E12	1.387379732216962	
1.6994525404282957E12	1.3843746643513042	
1.699452540429272E12	1.3864181104999516	
1.6994525404302483E12	1.3867787186438305	
1.6994525404312249E12	1.3848554752098095	
1.6994525404322012E12	1.3882211512193463	
1.6994525404331775E12	1.3876201376462147	
1.6994525404341538E12	1.3834130426342937	
1.6994525404351301E12	1.3853362860683147	
1.6994525404361064E12	1.388461556648599	
1.699452540437083E12	1.3830524344904147	
1.6994525404380593E12	1.3841342589220516	
1.6994525404390356E12	1.3859372996414463	
1.699452540440012E12	1.3846150697805568	
1.6994525404409883E12	1.3842544616366779	
1.6994525404419646E12	1.3837736507781726	
1.6994525404429412E12	1.3860575023560726	
1.6994525404439175E12	1.383172637205041	
1.6994525404448938E12	1.3826918263465358	
1.69945254044587E12	1.3870191240730831	
1.6994525404468464E12	1.38581709692682	
1.6994525404478228E12	1.3885817593632253	
1.6994525404487993E12	1.389663583794862	
1.6994525404497756E12	1.3872595295023358	
1.699452540450752E12	1.3878605430754674	
1.6994525404517283E12	1.3879807457900937	
1.6994525404527046E12	1.3847352724951831	
1.699452540453681E12	1.3829322317757884	
1.6994525404546575E12	1.385456488782941	
1.6994525404556338E12	1.3848554752098095	
1.69945254045661E12	1.3874999349315884	
1.6994525404575864E12	1.3876201376462147	
1.6994525404585627E12	1.3871393267877095	
1.699452540459539E12	1.3852160833536884	
1.6994525404605156E12	1.3856968942121937	
1.699452540461492E12	1.3842544616366779	
1.6994525404624683E12	1.3844948670659305	
1.6994525404634446E12	1.3876201376462147	
1.699452540464421E12	1.3864181104999516	
1.6994525404653972E12	1.3859372996414463	
1.6994525404663738E12	1.3865383132145779	
1.69945254046735E12	1.3872595295023358	
1.6994525404683264E12	1.3874999349315884	
1.6994525404693027E12	1.38810094850472	
1.699452540470279E12	1.3848554752098095	
1.6994525404712554E12	1.385456488782941	
1.699452540472232E12	1.3832928399196673	
1.6994525404732083E12	1.385095880639062	
1.6994525404741846E12	1.3836534480635463	
1.699452540475161E12	1.38581709692682	
1.6994525404761372E12	1.3853362860683147	
1.6994525404771135E12	1.3871393267877095	
1.69945254047809E12	1.385456488782941	
1.6994525404790664E12	1.3865383132145779	
1.6994525404800427E12	1.38581709692682	
1.699452540481019E12	1.3879807457900937	
1.6994525404819954E12	1.3872595295023358	
1.6994525404829717E12	1.3853362860683147	
1.6994525404839482E12	1.3901443946533674	
1.6994525404849246E12	1.388461556648599	
1.699452540485901E12	1.38353324534892	
1.6994525404868772E12	1.3870191240730831	
1.6994525404878535E12	1.3840140562074252	
1.6994525404888298E12	1.3849756779244358	
1.6994525404898064E12	1.3849756779244358	
1.6994525404907827E12	1.3856968942121937	
1.699452540491759E12	1.3832928399196673	
1.6994525404927354E12	1.3847352724951831	
1.6994525404937117E12	1.3843746643513042	
1.699452540494688E12	1.3822110154880305	
1.6994525404956646E12	1.3849756779244358	
1.6994525404966409E12	1.3859372996414463	
1.6994525404976172E12	1.3852160833536884	
1.6994525404985935E12	1.3849756779244358	
1.6994525404995698E12	1.3876201376462147	
1.6994525405005461E12	1.3891827729363568	
1.6994525405015227E12	1.3868989213584568	
1.699452540502499E12	1.387379732216962	
1.6994525405034753E12	1.3849756779244358	
1.6994525405044517E12	1.3906252055118726	
1.699452540505428E12	1.3897837865094884	
1.6994525405064043E12	1.3820908127734042	
1.6994525405073809E12	1.385095880639062	
1.6994525405083572E12	1.3887019620778516	
1.6994525405093335E12	1.3852160833536884	
1.6994525405103098E12	1.391947435372762	
1.6994525405112861E12	1.3885817593632253	
1.6994525405122625E12	1.3849756779244358	
1.699452540513239E12	1.3849756779244358	
1.6994525405142153E12	1.3840140562074252	
1.6994525405151917E12	1.3837736507781726	
1.699452540516168E12	1.38353324534892	
1.6994525405171443E12	1.3819706100587779	
1.6994525405181206E12	1.3889423675071042	
1.6994525405190972E12	1.3853362860683147	
1.6994525405200735E12	1.3885817593632253	
1.6994525405210498E12	1.3862979077853252	
1.6994525405220261E12	1.3864181104999516	
1.6994525405230024E12	1.3876201376462147	
1.6994525405239788E12	1.3817302046295252	
1.6994525405249553E12	1.3883413539339726	
1.6994525405259316E12	1.3842544616366779	
1.699452540526908E12	1.3862979077853252	
1.6994525405278843E12	1.388461556648599	
1.6994525405288606E12	1.3868989213584568	
1.699452540529837E12	1.387379732216962	
1.6994525405308135E12	1.3866585159292042	
1.6994525405317898E12	1.3834130426342937	
1.699452540532766E12	1.3837736507781726	
1.6994525405337424E12	1.3849756779244358	
1.6994525405347188E12	1.3822110154880305	
1.699452540535695E12	1.3846150697805568	
1.6994525405366716E12	1.3852160833536884	
1.699452540537648E12	1.3849756779244358	
1.6994525405386243E12	1.385456488782941	
1.6994525405396006E12	1.385095880639062	
1.699452540540577E12	1.3842544616366779	
1.6994525405415532E12	1.3843746643513042	
1.6994525405425298E12	1.3823312182026568	
1.699452540543506E12	1.3830524344904147	
1.6994525405444824E12	1.3853362860683147	
1.6994525405454587E12	1.3871393267877095	
1.699452540546435E12	1.3865383132145779	
1.6994525405474114E12	1.3842544616366779	
1.699452540548388E12	1.3842544616366779	
1.6994525405493643E12	1.3855766914975673	
1.6994525405503406E12	1.3841342589220516	
1.699452540551317E12	1.3856968942121937	
1.6994525405522932E12	1.3825716236319094	
1.6994525405532695E12	1.385095880639062	
1.699452540554246E12	1.38581709692682	
1.6994525405552224E12	1.3826918263465358	
1.6994525405561987E12	1.3879807457900937	
1.699452540557175E12	1.3842544616366779	
1.6994525405581514E12	1.3824514209172831	
1.6994525405591277E12	1.3855766914975673	
1.6994525405601042E12	1.3872595295023358	
1.6994525405610806E12	1.3795665557662513	
1.699452540562057E12	1.3813695964856463	
1.6994525405630332E12	1.3825716236319094	
1.6994525405640095E12	1.3844948670659305	
1.6994525405649858E12	1.3836534480635463	
1.6994525405659624E12	1.3859372996414463	
1.6994525405669387E12	1.382812029061162	
1.699452540567915E12	1.383172637205041	
1.6994525405688914E12	1.3855766914975673	
1.6994525405698677E12	1.3822110154880305	
1.699452540570844E12	1.3846150697805568	
1.6994525405718206E12	1.383893853492799	
1.6994525405727969E12	1.3848554752098095	
1.6994525405737732E12	1.3820908127734042	
1.6994525405747495E12	1.3843746643513042	
1.6994525405757258E12	1.3810089883417673	
1.6994525405767021E12	1.3817302046295252	
1.6994525405776787E12	1.3844948670659305	
1.699452540578655E12	1.3814897992002726	
1.6994525405796313E12	1.3842544616366779	
1.6994525405806077E12	1.381610001914899	
1.699452540581584E12	1.3836534480635463	
1.6994525405825603E12	1.3793261503369987	
1.6994525405835369E12	1.3843746643513042	
1.6994525405845132E12	1.3807685829125147	
1.6994525405854895E12	1.3813695964856463	
1.6994525405864658E12	1.3853362860683147	
1.6994525405874421E12	1.386177705070699	
1.6994525405884185E12	1.3836534480635463	
1.699452540589395E12	1.3847352724951831	
1.6994525405903713E12	1.386177705070699	
1.6994525405913477E12	1.3841342589220516	
1.699452540592324E12	1.382812029061162	
1.6994525405933003E12	1.3818504073441515	
1.6994525405942766E12	1.3849756779244358	
1.6994525405952532E12	1.3844948670659305	
1.6994525405962295E12	1.3846150697805568	
1.6994525405972058E12	1.3830524344904147	
1.6994525405981821E12	1.3842544616366779	
1.6994525405991584E12	1.3855766914975673	
1.6994525406001348E12	1.3893029756509832	
1.6994525406011113E12	1.3885817593632253	
1.6994525406020876E12	1.3865383132145779	
1.699452540603064E12	1.3866585159292042	
1.6994525406040403E12	1.3872595295023358	
1.6994525406050166E12	1.3899039892241147	
1.699452540605993E12	1.3866585159292042	
1.6994525406069695E12	1.3874999349315884	
1.6994525406079458E12	1.390024191938741	
1.699452540608922E12	1.3913464217996305	
1.6994525406098984E12	1.3872595295023358	
1.6994525406108748E12	1.3888221647924779	
1.699452540611851E12	1.387740340360841	
1.6994525406128276E12	1.3870191240730831	
1.699452540613804E12	1.3878605430754674	
1.6994525406147803E12	1.385095880639062	
1.6994525406157566E12	1.38810094850472	
1.699452540616733E12	1.3879807457900937	
1.6994525406177092E12	1.391106016370378	
1.6994525406186858E12	1.3908656109411253	
1.699452540619662E12	1.3862979077853252	
1.6994525406206384E12	1.3862979077853252	
1.6994525406216147E12	1.3909858136557516	
1.699452540622591E12	1.388461556648599	
1.6994525406235674E12	1.3902645973679937	
1.699452540624544E12	1.3918272326581358	
1.6994525406255203E12	1.3890625702217305	
1.6994525406264966E12	1.392308043516641	
1.699452540627473E12	1.392308043516641	
1.6994525406284492E12	1.3882211512193463	
1.6994525406294255E12	1.393389867948278	
1.699452540630402E12	1.390024191938741	
1.6994525406313784E12	1.3902645973679937	
1.6994525406323547E12	1.3885817593632253	
1.699452540633331E12	1.385095880639062	
1.6994525406343074E12	1.3885817593632253	
1.6994525406352837E12	1.387379732216962	
1.6994525406362603E12	1.389663583794862	
1.6994525406372366E12	1.3895433810802358	
1.699452540638213E12	1.3887019620778516	
1.6994525406391892E12	1.3895433810802358	
1.6994525406401655E12	1.3834130426342937	
1.6994525406411418E12	1.3856968942121937	
1.6994525406421184E12	1.39038480008262	
1.6994525406430947E12	1.386177705070699	
1.699452540644071E12	1.3872595295023358	
1.6994525406450474E12	1.3902645973679937	
1.6994525406460237E12	1.3879807457900937	
1.699452540647E12	1.38810094850472	
1.6994525406479766E12	1.3865383132145779	
1.699452540648953E12	1.3846150697805568	
1.6994525406499292E12	1.3864181104999516	
1.6994525406509055E12	1.3866585159292042	
1.6994525406518818E12	1.3860575023560726	
1.6994525406528582E12	1.3889423675071042	
1.6994525406538347E12	1.3906252055118726	
1.699452540654811E12	1.3856968942121937	
1.6994525406557874E12	1.3871393267877095	
1.6994525406567637E12	1.3860575023560726	
1.69945254065774E12	1.3849756779244358	
1.6994525406587163E12	1.3867787186438305	
1.6994525406596929E12	1.3883413539339726	
1.6994525406606692E12	1.3871393267877095	
1.6994525406616455E12	1.3870191240730831	
1.6994525406626218E12	1.3867787186438305	
1.6994525406635981E12	1.3888221647924779	
1.6994525406645745E12	1.3859372996414463	
1.699452540665551E12	1.3866585159292042	
1.6994525406665273E12	1.38810094850472	
1.6994525406675037E12	1.3814897992002726	
1.69945254066848E12	1.3859372996414463	
1.6994525406694563E12	1.3841342589220516	
1.6994525406704326E12	1.3841342589220516	
1.6994525406714092E12	1.383893853492799	
1.6994525406723855E12	1.385095880639062	
1.6994525406733618E12	1.3856968942121937	
1.6994525406743381E12	1.387379732216962	
1.6994525406753145E12	1.3840140562074252	
1.6994525406762908E12	1.3847352724951831	
1.6994525406772673E12	1.3814897992002726	
1.6994525406782437E12	1.3796867584808776	
1.69945254067922E12	1.3793261503369987	
1.6994525406801963E12	1.3853362860683147	
1.6994525406811726E12	1.3776433123322303	
1.699452540682149E12	1.380167569339383	
1.6994525406831255E12	1.3806483801978884	
1.6994525406841018E12	1.3796867584808776	
1.6994525406850781E12	1.3789655421931197	
1.6994525406860544E12	1.3814897992002726	
1.6994525406870308E12	1.3793261503369987	
1.699452540688007E12	1.3822110154880305	
1.6994525406889836E12	1.3824514209172831	
1.69945254068996E12	1.3811291910563936	
1.6994525406909363E12	1.3832928399196673	
1.6994525406919126E12	1.3842544616366779	
1.699452540692889E12	1.3796867584808776	
1.6994525406938652E12	1.3819706100587779	
1.6994525406948418E12	1.3811291910563936	
1.699452540695818E12	1.3810089883417673	
1.6994525406967944E12	1.3776433123322303	
1.6994525406977708E12	1.3826918263465358	
1.699452540698747E12	1.3807685829125147	
1.6994525406997234E12	1.3832928399196673	
1.6994525407007E12	1.3826918263465358	
1.6994525407016763E12	1.38124939377102	
1.6994525407026526E12	1.383172637205041	
1.699452540703629E12	1.3859372996414463	
1.6994525407046052E12	1.3844948670659305	
1.6994525407055815E12	1.3823312182026568	
1.699452540706558E12	1.3818504073441515	
1.6994525407075344E12	1.3818504073441515	
1.6994525407085107E12	1.3823312182026568	
1.699452540709487E12	1.3799271639101303	
1.6994525407104634E12	1.38124939377102	
1.69945254071144E12	1.376441285185967	
1.6994525407124163E12	1.380888785627141	
1.6994525407133926E12	1.3799271639101303	
1.699452540714369E12	1.3843746643513042	
1.6994525407153452E12	1.3800473666247566	
1.6994525407163215E12	1.3814897992002726	
1.699452540717298E12	1.3829322317757884	
1.6994525407182744E12	1.3855766914975673	
1.6994525407192507E12	1.3836534480635463	
1.699452540720227E12	1.3802877720540092	
1.6994525407212034E12	1.3804079747686355	
1.6994525407221797E12	1.379085744907746	
1.6994525407231562E12	1.3829322317757884	
1.6994525407241326E12	1.3824514209172831	
1.699452540725109E12	1.3844948670659305	
1.6994525407260852E12	1.383172637205041	
1.6994525407270615E12	1.3843746643513042	
1.6994525407280378E12	1.383172637205041	
1.6994525407290144E12	1.3830524344904147	
1.6994525407299907E12	1.38581709692682	
1.699452540730967E12	1.383893853492799	
1.6994525407319434E12	1.3822110154880305	
1.6994525407329197E12	1.378725136763867	
1.699452540733896E12	1.3788453394784934	
1.6994525407348726E12	1.3841342589220516	
1.6994525407358489E12	1.381610001914899	
1.6994525407368252E12	1.3825716236319094	
1.6994525407378015E12	1.3796867584808776	
1.6994525407387778E12	1.38353324534892	
1.6994525407397542E12	1.385456488782941	
1.6994525407407307E12	1.387379732216962	
1.699452540741707E12	1.3868989213584568	
1.6994525407426833E12	1.3841342589220516	
1.6994525407436597E12	1.3834130426342937	
1.699452540744636E12	1.387379732216962	
1.6994525407456123E12	1.3867787186438305	
1.6994525407465889E12	1.3889423675071042	
1.6994525407475652E12	1.3879807457900937	
1.6994525407485415E12	1.383172637205041	
1.6994525407495178E12	1.3842544616366779	
1.6994525407504941E12	1.3842544616366779	
1.6994525407514705E12	1.3829322317757884	
1.699452540752447E12	1.3825716236319094	
1.6994525407534233E12	1.3796867584808776	
1.6994525407543997E12	1.3789655421931197	
1.699452540755376E12	1.3822110154880305	
1.6994525407563523E12	1.3844948670659305	
1.6994525407573286E12	1.38353324534892	
1.6994525407583052E12	1.3841342589220516	
1.6994525407592815E12	1.383172637205041	
1.6994525407602578E12	1.3834130426342937	
1.6994525407612341E12	1.3865383132145779	
1.6994525407622104E12	1.381610001914899	
1.6994525407631868E12	1.3837736507781726	
1.6994525407641633E12	1.381610001914899	
1.6994525407651396E12	1.3848554752098095	
1.699452540766116E12	1.38353324534892	
1.6994525407670923E12	1.3859372996414463	
1.6994525407680686E12	1.3846150697805568	
1.699452540769045E12	1.38124939377102	
1.6994525407700215E12	1.380167569339383	
1.6994525407709978E12	1.3823312182026568	
1.699452540771974E12	1.3807685829125147	
1.6994525407729504E12	1.3823312182026568	
1.6994525407739268E12	1.3825716236319094	
1.699452540774903E12	1.3795665557662513	
1.6994525407758796E12	1.38353324534892	
1.699452540776856E12	1.3777635150468566	
1.6994525407778323E12	1.3796867584808776	
1.6994525407788086E12	1.3782443259053618	
1.699452540779785E12	1.3783645286199881	
1.6994525407807612E12	1.3784847313346145	
1.6994525407817378E12	1.3776433123322303	
1.699452540782714E12	1.3765614879005934	
1.6994525407836904E12	1.3723543928886723	
1.6994525407846667E12	1.3754796634689566	
1.699452540785643E12	1.3721139874594197	
1.6994525407866194E12	1.3688685141645092	
1.699452540787596E12	1.3701907440253986	
1.6994525407885723E12	1.3731958118910566	
1.6994525407895486E12	1.3711523657424092	
1.699452540790525E12	1.370671554883904	
1.6994525407915012E12	1.3652624327257197	
1.6994525407924775E12	1.369589730452267	
1.699452540793454E12	1.367305878874367	
1.6994525407944304E12	1.3711523657424092	
1.6994525407954067E12	1.3709119603131565	
1.699452540796383E12	1.3692291223083881	
1.6994525407973594E12	1.3707917575985302	
1.6994525407983357E12	1.369589730452267	
1.6994525407993123E12	1.372234190174046	
1.6994525408002886E12	1.370310946740025	
1.699452540801265E12	1.370671554883904	
1.6994525408022412E12	1.3721139874594197	
1.6994525408032175E12	1.3735564200349355	
1.6994525408041938E12	1.372955406461804	
1.6994525408051704E12	1.3728352037471776	
1.6994525408061467E12	1.3730756091764302	
1.699452540807123E12	1.3724745956032987	
1.6994525408080994E12	1.376801893329846	
1.6994525408090757E12	1.3774029069029776	
1.699452540810052E12	1.374157433608067	
1.6994525408110286E12	1.372234190174046	
1.699452540812005E12	1.3739170281788144	
1.6994525408129812E12	1.3755998661835829	
1.6994525408139575E12	1.3755998661835829	
1.6994525408149338E12	1.375239258039704	
1.6994525408159102E12	1.3754796634689566	
1.6994525408168867E12	1.3747584471811987	
1.699452540817863E12	1.3740372308934408	
1.6994525408188394E12	1.3746382444665723	
1.6994525408198157E12	1.374878649895825	
1.699452540820792E12	1.3762008797567145	
1.6994525408217683E12	1.375239258039704	
1.6994525408227449E12	1.380167569339383	
1.6994525408237212E12	1.3829322317757884	
1.6994525408246975E12	1.3755998661835829	
1.6994525408256738E12	1.3813695964856463	
1.6994525408266501E12	1.3762008797567145	
1.6994525408276265E12	1.379806961195504	
1.699452540828603E12	1.3822110154880305	
1.6994525408295793E12	1.379085744907746	
1.6994525408305557E12	1.3800473666247566	
1.699452540831532E12	1.380167569339383	
1.6994525408325083E12	1.377162501473725	
1.6994525408334846E12	1.38124939377102	
1.6994525408344612E12	1.3810089883417673	
1.6994525408354375E12	1.3826918263465358	
1.6994525408364138E12	1.3811291910563936	
1.6994525408373901E12	1.379806961195504	
1.6994525408383665E12	1.377523109617604	
1.6994525408393428E12	1.3783645286199881	
1.6994525408403193E12	1.3834130426342937	
1.6994525408412957E12	1.3836534480635463	
1.699452540842272E12	1.3796867584808776	
1.6994525408432483E12	1.3782443259053618	
1.6994525408442246E12	1.3818504073441515	
1.699452540845201E12	1.3829322317757884	
1.6994525408461775E12	1.3800473666247566	
1.6994525408471538E12	1.3822110154880305	
1.6994525408481301E12	1.379446353051625	
1.6994525408491064E12	1.379806961195504	
1.6994525408500828E12	1.3783645286199881	
1.699452540851059E12	1.3778837177614829	
1.6994525408520356E12	1.3759604743274618	
1.699452540853012E12	1.377523109617604	
1.6994525408539883E12	1.377523109617604	
1.6994525408549646E12	1.3777635150468566	
1.699452540855941E12	1.3777635150468566	
1.6994525408569172E12	1.3770422987590987	
1.6994525408578938E12	1.3757200688982092	
1.69945254085887E12	1.3810089883417673	
1.6994525408598464E12	1.3806483801978884	
1.6994525408608228E12	1.3823312182026568	
1.699452540861799E12	1.3825716236319094	
1.6994525408627754E12	1.381610001914899	
1.699452540863752E12	1.3778837177614829	
1.6994525408647283E12	1.3825716236319094	
1.6994525408657046E12	1.3814897992002726	
1.699452540866681E12	1.3807685829125147	
1.6994525408676572E12	1.3805281774832618	
1.6994525408686335E12	1.375239258039704	
1.69945254086961E12	1.3788453394784934	
1.6994525408705864E12	1.3777635150468566	
1.6994525408715627E12	1.377162501473725	
1.699452540872539E12	1.3782443259053618	
1.6994525408735154E12	1.380167569339383	
1.6994525408744917E12	1.3813695964856463	
1.6994525408754683E12	1.3781241231907355	
1.6994525408764446E12	1.3796867584808776	
1.699452540877421E12	1.3793261503369987	
1.6994525408783972E12	1.3802877720540092	
1.6994525408793735E12	1.3820908127734042	
1.6994525408803499E12	1.3796867584808776	
1.6994525408813264E12	1.3832928399196673	
1.6994525408823027E12	1.3807685829125147	
1.699452540883279E12	1.3832928399196673	
1.6994525408842554E12	1.379085744907746	
1.6994525408852317E12	1.3820908127734042	
1.699452540886208E12	1.3829322317757884	
1.6994525408871846E12	1.3832928399196673	
1.699452540888161E12	1.3823312182026568	
1.6994525408891372E12	1.3804079747686355	
1.6994525408901135E12	1.3847352724951831	
1.6994525408910898E12	1.382812029061162	
1.6994525408920662E12	1.3872595295023358	
1.6994525408930427E12	1.3840140562074252	
1.699452540894019E12	1.382812029061162	
1.6994525408949954E12	1.379446353051625	
1.6994525408959717E12	1.3778837177614829	
1.699452540896948E12	1.3823312182026568	
1.6994525408979243E12	1.3783645286199881	
1.699452540898901E12	1.3769220960444724	
1.6994525408998772E12	1.377523109617604	
1.6994525409008535E12	1.3762008797567145	
1.6994525409018298E12	1.3796867584808776	
1.6994525409028062E12	1.3842544616366779	
1.6994525409037825E12	1.379085744907746	
1.699452540904759E12	1.3795665557662513	
1.6994525409057354E12	1.374878649895825	
1.6994525409067117E12	1.379446353051625	
1.699452540907688E12	1.376441285185967	
1.6994525409086643E12	1.3757200688982092	
1.6994525409096406E12	1.379806961195504	
1.6994525409106172E12	1.3763210824713408	
1.6994525409115935E12	1.3800473666247566	
1.6994525409125698E12	1.3781241231907355	
1.6994525409135461E12	1.3766816906152197	
1.6994525409145225E12	1.3793261503369987	
1.6994525409154988E12	1.3774029069029776	
1.6994525409164753E12	1.3749988526104513	
1.6994525409174517E12	1.3772827041883513	
1.699452540918428E12	1.3766816906152197	
1.6994525409194043E12	1.378725136763867	
1.6994525409203806E12	1.3762008797567145	
1.699452540921357E12	1.3781241231907355	
1.6994525409223335E12	1.3781241231907355	
1.6994525409233098E12	1.3755998661835829	
1.6994525409242861E12	1.376801893329846	
1.6994525409252625E12	1.3774029069029776	
1.6994525409262388E12	1.3746382444665723	
1.699452540927215E12	1.3758402716128355	
1.6994525409281917E12	1.3782443259053618	
1.699452540929168E12	1.378725136763867	
1.6994525409301443E12	1.379085744907746	
1.6994525409311206E12	1.3763210824713408	
1.699452540932097E12	1.3778837177614829	
1.6994525409330732E12	1.379446353051625	
1.6994525409340498E12	1.3772827041883513	
1.6994525409350261E12	1.3769220960444724	
1.6994525409360024E12	1.3795665557662513	
1.6994525409369788E12	1.3783645286199881	
1.699452540937955E12	1.3807685829125147	
1.6994525409389314E12	1.3754796634689566	
1.699452540939908E12	1.3780039204761092	
1.6994525409408843E12	1.3788453394784934	
1.6994525409418606E12	1.3719937847447934	
1.699452540942837E12	1.3736766227495618	
1.6994525409438132E12	1.3759604743274618	
1.6994525409447896E12	1.374878649895825	
1.699452540945766E12	1.370310946740025	
1.6994525409467424E12	1.3712725684570355	
1.6994525409477188E12	1.3751190553250776	
1.699452540948695E12	1.371873582030167	
1.6994525409496714E12	1.3711523657424092	
1.6994525409506477E12	1.3711523657424092	
1.6994525409516243E12	1.372234190174046	
1.6994525409526006E12	1.3694695277376407	
1.699452540953577E12	1.369589730452267	
1.6994525409545532E12	1.3692291223083881	
1.6994525409555295E12	1.370310946740025	
1.6994525409565059E12	1.365743243584225	
1.6994525409574824E12	1.3677866897328723	
1.6994525409584587E12	1.368027095162125	
1.699452540959435E12	1.3681472978767513	
1.6994525409604114E12	1.3668250680158618	
1.6994525409613877E12	1.3694695277376407	
1.699452540962364E12	1.3664644598719828	
1.6994525409633406E12	1.3682675005913776	
1.699452540964317E12	1.3665846625866092	
1.6994525409652932E12	1.367666487018246	
1.6994525409662695E12	1.3679068924474986	
1.6994525409672458E12	1.369950338596146	
1.6994525409682222E12	1.3665846625866092	
1.6994525409691987E12	1.370671554883904	
1.699452540970175E12	1.367305878874367	
1.6994525409711514E12	1.370671554883904	
1.6994525409721277E12	1.3681472978767513	
1.699452540973104E12	1.3662240544427302	
1.6994525409740803E12	1.366945270730488	
1.699452540975057E12	1.3697099331668934	
1.6994525409760332E12	1.368387703306004	
1.6994525409770095E12	1.3677866897328723	
1.6994525409779858E12	1.3687483114498828	
1.6994525409789622E12	1.367305878874367	
1.6994525409799385E12	1.369950338596146	
1.699452540980915E12	1.3665846625866092	
1.6994525409818914E12	1.370310946740025	
1.6994525409828677E12	1.3688685141645092	
1.699452540983844E12	1.3685079060206302	
1.6994525409848203E12	1.370671554883904	
1.6994525409857966E12	1.3723543928886723	
1.6994525409867732E12	1.3691089195937618	
1.6994525409877495E12	1.369589730452267	
1.6994525409887258E12	1.3693493250230144	
1.6994525409897021E12	1.3670654734451144	
1.6994525409906785E12	1.3681472978767513	
1.6994525409916548E12	1.3687483114498828	
1.6994525409926313E12	1.3686281087352565	
1.6994525409936077E12	1.368387703306004	
1.699452540994584E12	1.3698301358815197	
1.6994525409955603E12	1.3707917575985302	
1.6994525409965366E12	1.3707917575985302	
1.699452540997513E12	1.366103851728104	
1.6994525409984895E12	1.3665846625866092	
1.6994525409994658E12	1.3686281087352565	
1.6994525410004421E12	1.3709119603131565	
1.6994525410014185E12	1.3697099331668934	
1.6994525410023948E12	1.3717533793155408	
1.6994525410033713E12	1.3711523657424092	
1.6994525410043477E12	1.3659836490134776	
1.699452541005324E12	1.3658634462988513	
1.6994525410063003E12	1.3691089195937618	
1.6994525410072766E12	1.3651422300110934	
1.699452541008253E12	1.367666487018246	
1.6994525410092295E12	1.3662240544427302	
1.6994525410102058E12	1.3665846625866092	
1.6994525410111821E12	1.3682675005913776	
1.6994525410121584E12	1.365743243584225	
1.6994525410131348E12	1.368027095162125	
1.699452541014111E12	1.367305878874367	
1.6994525410150876E12	1.3665846625866092	
1.699452541016064E12	1.3641806082940826	
1.6994525410170403E12	1.365382635440346	
1.6994525410180166E12	1.3633391892916984	
1.699452541018993E12	1.363218986577072	
1.6994525410199692E12	1.3640604055794563	
1.6994525410209458E12	1.3682675005913776	
1.699452541021922E12	1.3618967567161826	
1.6994525410228984E12	1.3579300671335142	
1.6994525410238748E12	1.3615361485723037	
1.699452541024851E12	1.3603341214260405	
1.6994525410258274E12	1.3629785811478194	
1.699452541026804E12	1.3584108779920194	
1.6994525410277803E12	1.362016959430809	
1.6994525410287566E12	1.3591320942797773	
1.699452541029733E12	1.3598533105675352	
1.6994525410307092E12	1.3587714861358984	
1.6994525410316855E12	1.3617765540015563	
1.699452541032662E12	1.3622573648600615	
1.6994525410336384E12	1.360935134999172	
1.6994525410346147E12	1.362016959430809	
1.699452541035591E12	1.36165635128693	
1.6994525410365674E12	1.364300811008709	
1.6994525410375437E12	1.3592522969944036	
1.6994525410385203E12	1.36165635128693	
1.6994525410394966E12	1.3626179730039405	
1.699452541040473E12	1.3602139187114142	
1.6994525410414492E12	1.3602139187114142	
1.6994525410424255E12	1.3608149322845458	
1.6994525410434019E12	1.35937249970903	
1.6994525410443784E12	1.36165635128693	
1.6994525410453547E12	1.3585310807066457	
1.699452541046331E12	1.3581704725627668	
1.6994525410473074E12	1.3591320942797773	
1.6994525410482837E12	1.3579300671335142	
1.69945254104926E12	1.3585310807066457	
1.6994525410502366E12	1.3549249992678563	
1.699452541051213E12	1.35708864813113	
1.6994525410521892E12	1.3605745268552931	
1.6994525410531655E12	1.3585310807066457	
1.6994525410541418E12	1.3579300671335142	
1.6994525410551182E12	1.3584108779920194	
1.6994525410560947E12	1.3605745268552931	
1.699452541057071E12	1.36165635128693	
1.6994525410580474E12	1.3573290535603826	
1.6994525410590237E12	1.3576896617042615	
1.69945254106E12	1.3569684454165036	
1.6994525410609763E12	1.356367431843372	
1.699452541061953E12	1.3573290535603826	
1.6994525410629292E12	1.3585310807066457	
1.6994525410639055E12	1.3599735132821615	
1.6994525410648818E12	1.3578098644188878	
1.6994525410658582E12	1.3569684454165036	
1.6994525410668345E12	1.3579300671335142	
1.699452541067811E12	1.3605745268552931	
1.6994525410687874E12	1.3564876345579984	
1.6994525410697637E12	1.3614159458576773	
1.69945254107074E12	1.3591320942797773	
1.6994525410717163E12	1.3610553377137984	
1.6994525410726926E12	1.358651283421272	
1.6994525410736692E12	1.3592522969944036	
1.6994525410746455E12	1.35708864813113	
1.6994525410756218E12	1.354444188409351	
1.6994525410765981E12	1.3575694589896352	
1.6994525410775745E12	1.3538431748362194	
1.6994525410785508E12	1.3584108779920194	
1.6994525410795273E12	1.3584108779920194	
1.6994525410805037E12	1.3568482427018773	
1.69945254108148E12	1.35937249970903	
1.6994525410824563E12	1.3621371621454352	
1.6994525410834326E12	1.36165635128693	
1.699452541084409E12	1.3588916888505247	
1.6994525410853855E12	1.3618967567161826	
1.6994525410863618E12	1.35937249970903	
1.6994525410873381E12	1.3638200001502037	
1.6994525410883145E12	1.362016959430809	
1.6994525410892908E12	1.36394020286483	
1.699452541090267E12	1.3623775675746879	
1.6994525410912437E12	1.3584108779920194	
1.69945254109222E12	1.363579594720951	
1.6994525410931963E12	1.3633391892916984	
1.6994525410941726E12	1.3606947295699194	
1.699452541095149E12	1.362016959430809	
1.6994525410961252E12	1.360935134999172	
1.6994525410971018E12	1.3636997974355773	
1.6994525410980781E12	1.3606947295699194	
1.6994525410990544E12	1.3600937159967879	
1.6994525411000308E12	1.3602139187114142	
1.699452541101007E12	1.3615361485723037	
1.6994525411019834E12	1.3618967567161826	
1.69945254110296E12	1.3606947295699194	
1.6994525411039363E12	1.3641806082940826	
1.6994525411049126E12	1.366945270730488	
1.699452541105889E12	1.3656230408695986	
1.6994525411068652E12	1.3659836490134776	
1.6994525411078416E12	1.366945270730488	
1.699452541108818E12	1.3633391892916984	
1.6994525411097944E12	1.3628583784331931	
1.6994525411107708E12	1.363579594720951	
1.699452541111747E12	1.3652624327257197	
1.6994525411127234E12	1.3622573648600615	
1.6994525411136997E12	1.3614159458576773	
1.6994525411146763E12	1.359011891565151	
1.6994525411156526E12	1.3588916888505247	
1.699452541116629E12	1.3584108779920194	
1.6994525411176052E12	1.3628583784331931	
1.6994525411185815E12	1.3606947295699194	
1.6994525411195579E12	1.3621371621454352	
1.6994525411205344E12	1.3626179730039405	
1.6994525411215107E12	1.3608149322845458	
1.699452541122487E12	1.3584108779920194	
1.6994525411234634E12	1.3578098644188878	
1.6994525411244397E12	1.3584108779920194	
1.699452541125416E12	1.3618967567161826	
1.6994525411263926E12	1.3569684454165036	
1.699452541127369E12	1.3572088508457563	
1.6994525411283452E12	1.35937249970903	
1.6994525411293215E12	1.3573290535603826	
1.6994525411302979E12	1.3575694589896352	
1.6994525411312742E12	1.3566078372726247	
1.6994525411322507E12	1.3568482427018773	
1.699452541133227E12	1.3596129051382826	
1.6994525411342034E12	1.3578098644188878	
1.6994525411351797E12	1.3519199314021983	
1.699452541136156E12	1.3515593232583194	
1.6994525411371323E12	1.3524007422607036	
1.699452541138109E12	1.35480479655323	
1.6994525411390852E12	1.3551654046971089	
1.6994525411400615E12	1.3538431748362194	
1.6994525411410378E12	1.3534825666923405	
1.6994525411420142E12	1.3561270264141194	
1.6994525411429905E12	1.3550452019824826	
1.699452541143967E12	1.3587714861358984	
1.6994525411449434E12	1.3558866209848668	
1.6994525411459197E12	1.3536027694069668	
1.699452541146896E12	1.3546845938386036	
1.6994525411478723E12	1.3542037829800984	
1.6994525411488486E12	1.3524007422607036	
1.6994525411498252E12	1.3528815531192089	
1.6994525411508015E12	1.3551654046971089	
1.6994525411517778E12	1.3533623639777141	
1.6994525411527542E12	1.3557664182702405	
1.6994525411537305E12	1.3530017558338352	
1.6994525411547068E12	1.3507179042559352	
1.6994525411556833E12	1.3524007422607036	
1.6994525411566597E12	1.3530017558338352	
1.699452541157636E12	1.3485542553926613	
1.6994525411586123E12	1.3510785123998141	
1.6994525411595886E12	1.3522805395460773	
1.699452541160565E12	1.356367431843372	
1.6994525411615415E12	1.3530017558338352	
1.6994525411625178E12	1.3501168906828036	
1.6994525411634941E12	1.3492754716804192	
1.6994525411644705E12	1.3527613504045826	
1.6994525411654468E12	1.3507179042559352	
1.699452541166423E12	1.3497562825389247	
1.6994525411673997E12	1.3507179042559352	
1.699452541168376E12	1.3510785123998141	
1.6994525411693523E12	1.351439120543693	
1.6994525411703286E12	1.3532421612630878	
1.699452541171305E12	1.349515877109672	
1.6994525411722812E12	1.3524007422607036	
1.6994525411732578E12	1.3531219585484615	
1.6994525411742341E12	1.3504774988266826	
1.6994525411752104E12	1.3493956743950457	
1.6994525411761868E12	1.3489148635365402	
1.699452541177163E12	1.3481936472487823	
1.6994525411781394E12	1.3486744581072876	
1.699452541179116E12	1.3504774988266826	
1.6994525411800923E12	1.3451885793831244	
1.6994525411810686E12	1.346510809244014	
1.699452541182045E12	1.3496360798242983	
1.6994525411830212E12	1.3513189178290668	
1.6994525411839976E12	1.3462704038147613	
1.699452541184974E12	1.3526411476899562	
1.6994525411859504E12	1.351439120543693	
1.6994525411869268E12	1.3486744581072876	
1.699452541187903E12	1.3467512146732665	
1.6994525411888794E12	1.346510809244014	
1.6994525411898557E12	1.3501168906828036	
1.6994525411908323E12	1.3492754716804192	
1.6994525411918086E12	1.3515593232583194	
1.699452541192785E12	1.3478330391049034	
1.6994525411937612E12	1.3528815531192089	
1.6994525411947375E12	1.3471118228171455	
1.6994525411957139E12	1.3474724309610244	
1.6994525411966904E12	1.3475926336756507	
1.6994525411976667E12	1.349515877109672	
1.699452541198643E12	1.349876485253551	
1.6994525411996194E12	1.347352228246398	
1.6994525412005957E12	1.347712836390277	
1.699452541201572E12	1.3472320255317718	
1.6994525412025486E12	1.3501168906828036	
1.699452541203525E12	1.351439120543693	
1.6994525412045012E12	1.3468714173878928	
1.6994525412054775E12	1.3430249305198507	
1.6994525412064539E12	1.345789592956256	
1.6994525412074302E12	1.3503572961120562	
1.6994525412084067E12	1.3485542553926613	
1.699452541209383E12	1.3469916201025192	
1.6994525412103594E12	1.3436259440929823	
1.6994525412113357E12	1.3490350662511665	
1.699452541212312E12	1.3489148635365402	
1.6994525412132883E12	1.3447077685246192	
1.699452541214265E12	1.3490350662511665	
1.6994525412152412E12	1.346510809244014	
1.6994525412162175E12	1.3451885793831244	
1.6994525412171938E12	1.3449481739538718	
1.6994525412181702E12	1.3437461468076086	
1.6994525412191465E12	1.345068376668498	
1.699452541220123E12	1.3448279712392455	
1.6994525412210994E12	1.3444673630953665	
1.6994525412220757E12	1.3437461468076086	
1.699452541223052E12	1.3471118228171455	
1.6994525412240283E12	1.3453087820977507	
1.6994525412250046E12	1.345428984812377	
1.6994525412259812E12	1.3413420925150823	
1.6994525412269575E12	1.3423037142320928	
1.6994525412279338E12	1.3377360110762928	
1.6994525412289102E12	1.343866349522235	
1.6994525412298865E12	1.3439865522368613	
1.6994525412308628E12	1.3441067549514876	
1.6994525412318394E12	1.341221889800456	
1.6994525412328157E12	1.3418229033735876	
1.699452541233792E12	1.3396592545103139	
1.6994525412347683E12	1.3424239169467191	
1.6994525412357446E12	1.3424239169467191	
1.699452541236721E12	1.3386976327933033	
1.6994525412376975E12	1.3423037142320928	
1.6994525412386738E12	1.3414622952297086	
1.6994525412396501E12	1.345789592956256	
1.6994525412406265E12	1.345789592956256	
1.6994525412416028E12	1.3462704038147613	
1.699452541242579E12	1.347352228246398	
1.6994525412435557E12	1.3451885793831244	
1.699452541244532E12	1.3453087820977507	
1.6994525412455083E12	1.3449481739538718	
1.6994525412464846E12	1.3453087820977507	
1.699452541247461E12	1.3443471603807402	
1.6994525412484373E12	1.3442269576661139	
1.6994525412494138E12	1.3390582409371823	
1.6994525412503901E12	1.345068376668498	
1.6994525412513665E12	1.3436259440929823	
1.6994525412523428E12	1.3444673630953665	
1.699452541253319E12	1.343505741378356	
1.6994525412542954E12	1.343866349522235	
1.699452541255272E12	1.3409814843712033	
1.6994525412562483E12	1.338216821934798	
1.6994525412572246E12	1.342784525090598	
1.699452541258201E12	1.3414622952297086	
1.6994525412591772E12	1.3432653359491034	
1.6994525412601536E12	1.3420633088028402	
1.6994525412611301E12	1.3449481739538718	
1.6994525412621064E12	1.3414622952297086	
1.6994525412630828E12	1.3402602680834454	
1.699452541264059E12	1.3439865522368613	
1.6994525412650354E12	1.3398996599395665	
1.6994525412660117E12	1.3413420925150823	
1.6994525412669883E12	1.340500673512698	
1.6994525412679646E12	1.338938038222556	
1.699452541268941E12	1.3388178355079297	
1.6994525412699172E12	1.3352117540691402	
1.6994525412708936E12	1.338216821934798	
1.6994525412718699E12	1.3396592545103139	
1.6994525412728464E12	1.3390582409371823	
1.6994525412738228E12	1.3376158083616665	
1.699452541274799E12	1.341582497944335	
1.6994525412757754E12	1.3425441196613455	
1.6994525412767517E12	1.338216821934798	
1.699452541277728E12	1.340861281656577	
1.6994525412787046E12	1.3384572273640507	
1.699452541279681E12	1.3401400653688191	
1.6994525412806572E12	1.3430249305198507	
1.6994525412816335E12	1.341221889800456	
1.6994525412826099E12	1.3445875658099928	
1.6994525412835862E12	1.3444673630953665	
1.6994525412845627E12	1.3420633088028402	
1.699452541285539E12	1.3407410789419507	
1.6994525412865154E12	1.3426643223759718	
1.6994525412874917E12	1.338216821934798	
1.699452541288468E12	1.3401400653688191	
1.6994525412894443E12	1.3378562137909191	
1.699452541290421E12	1.3379764165055454	
1.6994525412913972E12	1.338938038222556	
1.6994525412923735E12	1.3371349975031612	
1.6994525412933499E12	1.3384572273640507	
1.6994525412943262E12	1.3354521594983928	
1.6994525412953025E12	1.3395390517956876	
1.699452541296279E12	1.3402602680834454	
1.6994525412972554E12	1.338938038222556	
1.6994525412982317E12	1.3391784436518086	
1.699452541299208E12	1.3419431060882139	
1.6994525413001843E12	1.3361733757861507	
1.699452541301161E12	1.339298646366435	
1.6994525413021372E12	1.3400198626541928	
1.6994525413031135E12	1.3437461468076086	
1.6994525413040898E12	1.3420633088028402	
1.6994525413050662E12	1.338938038222556	
1.6994525413060425E12	1.3372552002177875	
1.699452541307019E12	1.3368945920739086	
1.6994525413079954E12	1.3378562137909191	
1.6994525413089717E12	1.3371349975031612	
1.699452541309948E12	1.3396592545103139	
1.6994525413109243E12	1.3403804707980718	
1.6994525413119006E12	1.3311248617718452	
1.6994525413128772E12	1.334730943210635	
1.6994525413138535E12	1.3380966192201718	
1.6994525413148298E12	1.3348511459252612	
1.6994525413158062E12	1.3344905377813823	
1.6994525413167825E12	1.3350915513545139	
1.6994525413177588E12	1.3368945920739086	
1.6994525413187354E12	1.3376158083616665	
1.6994525413197117E12	1.3354521594983928	
1.699452541320688E12	1.3383370246494244	
1.6994525413216643E12	1.3400198626541928	
1.6994525413226406E12	1.3413420925150823	
1.699452541323617E12	1.3413420925150823	
1.6994525413245935E12	1.3388178355079297	
1.6994525413255698E12	1.3377360110762928	
1.6994525413265461E12	1.338216821934798	
1.6994525413275225E12	1.338216821934798	
1.6994525413284988E12	1.3386976327933033	
1.699452541329475E12	1.3398996599395665	
1.6994525413304517E12	1.3344905377813823	
1.699452541331428E12	1.3397794572249402	
1.6994525413324043E12	1.3373754029324139	
1.6994525413333806E12	1.3398996599395665	
1.699452541334357E12	1.3390582409371823	
1.6994525413353333E12	1.3331683079204926	
1.6994525413363098E12	1.3411016870858297	
1.6994525413372861E12	1.336293578500777	
1.6994525413382625E12	1.3341299296375033	
1.6994525413392388E12	1.3367743893592823	
1.699452541340215E12	1.3364137812154033	
1.6994525413411914E12	1.336654186644656	
1.699452541342168E12	1.337014794788535	
1.6994525413431443E12	1.336654186644656	
1.6994525413441206E12	1.339298646366435	
1.699452541345097E12	1.334730943210635	
1.6994525413460732E12	1.3374956056470402	
1.6994525413470496E12	1.3376158083616665	
1.6994525413480261E12	1.3365339839300296	
1.6994525413490024E12	1.339298646366435	
1.6994525413499788E12	1.3403804707980718	
1.699452541350955E12	1.336654186644656	
1.6994525413519314E12	1.3374956056470402	
1.6994525413529077E12	1.3358127676422717	
1.6994525413538843E12	1.3364137812154033	
1.6994525413548606E12	1.3380966192201718	
1.699452541355837E12	1.3372552002177875	
1.6994525413568132E12	1.3372552002177875	
1.6994525413577896E12	1.3353319567837665	
1.6994525413587659E12	1.336293578500777	
1.6994525413597424E12	1.3394188490810612	
1.6994525413607188E12	1.3372552002177875	
1.699452541361695E12	1.338938038222556	
1.6994525413626714E12	1.3380966192201718	
1.6994525413636477E12	1.337014794788535	
1.699452541364624E12	1.3342501323521296	
1.6994525413656006E12	1.3314854699157241	
1.699452541366577E12	1.3300430373402083	
1.6994525413675532E12	1.3294420237670768	
1.6994525413685295E12	1.332206686203482	
1.6994525413695059E12	1.3338895242082507	
1.6994525413704822E12	1.3334087133497452	
1.6994525413714587E12	1.332567294347361	
1.699452541372435E12	1.3356925649276454	
1.6994525413734114E12	1.334370335066756	
1.6994525413743877E12	1.336293578500777	
1.699452541375364E12	1.3319662807742294	
1.6994525413763403E12	1.3319662807742294	
1.699452541377317E12	1.329922834625582	
1.6994525413782932E12	1.3314854699157241	
1.6994525413792695E12	1.3335289160643715	
1.6994525413802458E12	1.332567294347361	
1.6994525413812222E12	1.3287208074793189	
1.6994525413821985E12	1.3282399966208136	
1.699452541383175E12	1.3316056726303505	
1.6994525413841514E12	1.3288410101939452	
1.6994525413851277E12	1.3313652672010978	
1.699452541386104E12	1.3319662807742294	
1.6994525413870803E12	1.331846078059603	
1.6994525413880566E12	1.3319662807742294	
1.6994525413890332E12	1.3311248617718452	
1.6994525413900095E12	1.3300430373402083	
1.6994525413909858E12	1.3324470916327347	
1.6994525413919622E12	1.3319662807742294	
1.6994525413929385E12	1.3314854699157241	
1.6994525413939148E12	1.3326874970619873	
1.6994525413948914E12	1.3326874970619873	
1.6994525413958677E12	1.331846078059603	
1.699452541396844E12	1.3312450644864715	
1.6994525413978203E12	1.3337693214936244	
1.6994525413987966E12	1.3352117540691402	
1.699452541399773E12	1.3324470916327347	
1.6994525414007495E12	1.3350915513545139	
1.6994525414017258E12	1.336293578500777	
1.6994525414027021E12	1.336293578500777	
1.6994525414036785E12	1.3352117540691402	
1.6994525414046548E12	1.3353319567837665	
1.699452541405631E12	1.3342501323521296	
1.6994525414066077E12	1.3326874970619873	
1.699452541407584E12	1.3348511459252612	
1.6994525414085603E12	1.3346107404960086	
1.6994525414095366E12	1.334009726922877	
1.699452541410513E12	1.3313652672010978	
1.6994525414114893E12	1.3307642536279662	
1.6994525414124658E12	1.3290814156231978	
1.6994525414134421E12	1.3305238481987136	
1.6994525414144185E12	1.33064405091334	
1.6994525414153948E12	1.3294420237670768	
1.699452541416371E12	1.332567294347361	
1.6994525414173474E12	1.3294420237670768	
1.699452541418324E12	1.3259561450429136	
1.6994525414193003E12	1.3305238481987136	
1.6994525414202766E12	1.3305238481987136	
1.699452541421253E12	1.3316056726303505	
1.6994525414222292E12	1.3336491187789978	
1.6994525414232056E12	1.3300430373402083	
1.6994525414241821E12	1.3310046590572189	
1.6994525414251584E12	1.3311248617718452	
1.6994525414261348E12	1.3313652672010978	
1.699452541427111E12	1.3305238481987136	
1.6994525414280874E12	1.3311248617718452	
1.6994525414290637E12	1.3307642536279662	
1.6994525414300403E12	1.3330481052058663	
1.6994525414310166E12	1.3296824291963294	
1.699452541431993E12	1.3269177667599241	
1.6994525414329692E12	1.3310046590572189	
1.6994525414339456E12	1.3277591857623083	
1.6994525414349219E12	1.327999591191561	
1.6994525414358984E12	1.3266773613306715	
1.6994525414368748E12	1.3289612129085715	
1.699452541437851E12	1.3277591857623083	
1.6994525414388274E12	1.3304036454840873	
1.6994525414398037E12	1.327278374903803	
1.69945254144078E12	1.3282399966208136	
1.6994525414417566E12	1.3287208074793189	
1.699452541442733E12	1.3311248617718452	
1.6994525414437092E12	1.3273985776184294	
1.6994525414446855E12	1.329562226481703	
1.6994525414456619E12	1.3320864834888557	
1.6994525414466382E12	1.3265571586160452	
1.6994525414476147E12	1.3251147260405294	
1.699452541448591E12	1.3263167531867925	
1.6994525414495674E12	1.325355131469782	
1.6994525414505437E12	1.3275187803330557	
1.69945254145152E12	1.3239126988942662	
1.6994525414524963E12	1.3286006047646925	
1.699452541453473E12	1.327638983047682	
1.6994525414544492E12	1.330283442769461	
1.6994525414554255E12	1.3290814156231978	
1.6994525414564019E12	1.3255955368990346	
1.6994525414573782E12	1.325355131469782	
1.6994525414583545E12	1.3278793884769347	
1.699452541459331E12	1.3296824291963294	
1.6994525414603074E12	1.3269177667599241	
1.6994525414612837E12	1.3282399966208136	
1.69945254146226E12	1.3282399966208136	
1.6994525414632363E12	1.325355131469782	
1.6994525414642126E12	1.3290814156231978	
1.6994525414651892E12	1.327278374903803	
1.6994525414661655E12	1.325715739613661	
1.6994525414671418E12	1.3264369559014189	
1.6994525414681182E12	1.3233116853211346	
1.6994525414690945E12	1.321148036457861	
1.6994525414700708E12	1.3218692527456188	
1.6994525414710474E12	1.3239126988942662	
1.6994525414720237E12	1.32150864460174	
1.699452541473E12	1.323071279891882	
1.6994525414739763E12	1.32150864460174	
1.6994525414749526E12	1.3243935097527715	
1.699452541475929E12	1.323071279891882	
1.6994525414769055E12	1.3219894554602452	
1.6994525414778818E12	1.3212682391724873	
1.6994525414788582E12	1.3224702663187504	
1.6994525414798345E12	1.322350063604124	
1.6994525414808108E12	1.3236722934650136	
1.699452541481787E12	1.3213884418871136	
1.6994525414827637E12	1.3241531043235188	
1.69945254148374E12	1.3217490500309925	
1.6994525414847163E12	1.3222298608894978	
1.6994525414856926E12	1.3212682391724873	
1.699452541486669E12	1.318142968592203	
1.6994525414876453E12	1.321148036457861	
1.6994525414886218E12	1.3209076310286083	
1.6994525414895981E12	1.3205470228847294	
1.6994525414905745E12	1.322350063604124	
1.6994525414915508E12	1.318864184879961	
1.699452541492527E12	1.3162197251581818	
1.6994525414935034E12	1.3183833740214557	
1.69945254149448E12	1.3165803333020607	
1.6994525414954563E12	1.3165803333020607	
1.6994525414964326E12	1.3187439821653346	
1.699452541497409E12	1.3192247930238399	
1.6994525414983853E12	1.3187439821653346	
1.6994525414993616E12	1.3189843875945872	
1.6994525415003381E12	1.3154985088704239	
1.6994525415013145E12	1.3135752654364028	
1.6994525415022908E12	1.3159793197289291	
1.699452541503267E12	1.3191045903092136	
1.6994525415042434E12	1.3177823604483239	
1.6994525415052197E12	1.3168207387313133	
1.6994525415061963E12	1.3175419550190712	
1.6994525415071726E12	1.321148036457861	
1.699452541508149E12	1.3171813468751923	
1.6994525415091252E12	1.3150176980119186	
1.6994525415101016E12	1.3168207387313133	
1.699452541511078E12	1.3206672255993557	
1.6994525415120544E12	1.3173015495898186	
1.6994525415130308E12	1.3199460093115978	
1.699452541514007E12	1.3191045903092136	
1.6994525415149834E12	1.3146570898680396	
1.6994525415159597E12	1.313695468151029	
1.699452541516936E12	1.316339927872808	
1.6994525415179126E12	1.3165803333020607	
1.699452541518889E12	1.3165803333020607	
1.6994525415198652E12	1.315137900726545	
1.6994525415208416E12	1.3175419550190712	
1.6994525415218179E12	1.3157389142996765	
1.6994525415227942E12	1.3153783061557975	
1.6994525415237708E12	1.3158591170143028	
1.699452541524747E12	1.3138156708656554	
1.6994525415257234E12	1.316339927872808	
1.6994525415266997E12	1.3171813468751923	
1.699452541527676E12	1.3231914826065083	
1.6994525415286523E12	1.318503576736082	
1.699452541529629E12	1.3152581034411712	
1.6994525415306052E12	1.3187439821653346	
1.6994525415315815E12	1.3186237794507083	
1.6994525415325579E12	1.3153783061557975	
1.6994525415335342E12	1.3159793197289291	
1.6994525415345105E12	1.3164601305874344	
1.699452541535487E12	1.3177823604483239	
1.6994525415364634E12	1.3169409414459397	
1.6994525415374397E12	1.3148974952972923	
1.699452541538416E12	1.3168207387313133	
1.6994525415393923E12	1.3105701975707449	
1.6994525415403687E12	1.3108106029999975	
1.6994525415413452E12	1.3169409414459397	
1.6994525415423215E12	1.311411616573129	
1.6994525415432979E12	1.314777292582666	
1.6994525415442742E12	1.3112914138585028	
1.6994525415452505E12	1.3145368871534133	
1.6994525415462268E12	1.3157389142996765	
1.6994525415472034E12	1.3176621577336975	
1.6994525415481797E12	1.3160995224435554	
1.699452541549156E12	1.3171813468751923	
1.6994525415501323E12	1.3145368871534133	
1.6994525415511086E12	1.317061144160566	
1.699452541552085E12	1.3150176980119186	
1.6994525415530615E12	1.3104499948561186	
1.6994525415540378E12	1.3129742518632712	
1.6994525415550142E12	1.3152581034411712	
1.6994525415559905E12	1.3115318192877554	
1.6994525415569668E12	1.3153783061557975	
1.699452541557943E12	1.3160995224435554	
1.6994525415589197E12	1.3133348600071502	
1.699452541559896E12	1.3164601305874344	
1.6994525415608723E12	1.3135752654364028	
1.6994525415618486E12	1.3148974952972923	
1.699452541562825E12	1.318142968592203	
1.6994525415638013E12	1.312132832860887	
1.6994525415647778E12	1.3145368871534133	
1.6994525415657542E12	1.3153783061557975	
1.6994525415667305E12	1.312854049148645	
1.6994525415677068E12	1.313695468151029	
1.699452541568683E12	1.3187439821653346	
1.6994525415696594E12	1.3150176980119186	
1.699452541570636E12	1.3139358735802817	
1.6994525415716123E12	1.314777292582666	
1.6994525415725886E12	1.3112914138585028	
1.699452541573565E12	1.3153783061557975	
1.6994525415745413E12	1.3165803333020607	
1.6994525415755176E12	1.3191045903092136	
1.6994525415764941E12	1.3175419550190712	
1.6994525415774705E12	1.3152581034411712	
1.6994525415784468E12	1.3150176980119186	
1.699452541579423E12	1.3146570898680396	
1.6994525415803994E12	1.3152581034411712	
1.6994525415813757E12	1.3169409414459397	
1.6994525415823523E12	1.3130944545778975	
1.6994525415833286E12	1.3118924274316344	
1.699452541584305E12	1.3164601305874344	
1.6994525415852812E12	1.3157389142996765	
1.6994525415862576E12	1.3171813468751923	
1.699452541587234E12	1.312132832860887	
1.6994525415882104E12	1.3173015495898186	
1.6994525415891868E12	1.3141762790095344	
1.699452541590163E12	1.3129742518632712	
1.6994525415911394E12	1.3122530355755133	
1.6994525415921157E12	1.3127338464340186	
1.6994525415930923E12	1.3130944545778975	
1.6994525415940686E12	1.312132832860887	
1.699452541595045E12	1.3066035079880765	
1.6994525415960212E12	1.3093681704244817	
1.6994525415969976E12	1.3082863459928449	
1.6994525415979739E12	1.3067237107027028	
1.6994525415989504E12	1.3115318192877554	
1.6994525415999268E12	1.3141762790095344	
1.699452541600903E12	1.3132146572925238	
1.6994525416018794E12	1.3093681704244817	
1.6994525416028557E12	1.3122530355755133	
1.699452541603832E12	1.314056076294908	
1.6994525416048086E12	1.3086469541367238	
1.699452541605785E12	1.3096085758537344	
1.6994525416067612E12	1.3092479677098554	
1.6994525416077375E12	1.3103297921414923	
1.6994525416087139E12	1.3099691839976133	
1.6994525416096902E12	1.310209589426866	
1.6994525416106667E12	1.3081661432782186	
1.699452541611643E12	1.3099691839976133	
1.6994525416126194E12	1.3099691839976133	
1.6994525416135957E12	1.307925737848966	
1.699452541614572E12	1.309127764995229	
1.6994525416155483E12	1.307565129705087	
1.699452541616525E12	1.3067237107027028	
1.6994525416175012E12	1.307925737848966	
1.6994525416184775E12	1.3064833052734501	
1.6994525416194539E12	1.3086469541367238	
1.6994525416204302E12	1.305641886271066	
1.6994525416214065E12	1.305641886271066	
1.699452541622383E12	1.3035984401224185	
1.6994525416233594E12	1.3046802645540554	
1.6994525416243357E12	1.3080459405635922	
1.699452541625312E12	1.3022762102615288	
1.6994525416262883E12	1.304920669983308	
1.6994525416272646E12	1.30191560211765	
1.6994525416282412E12	1.303358034693166	
1.6994525416292175E12	1.300473169542134	
1.6994525416301938E12	1.2997519532543762	
1.6994525416311702E12	1.2957852636717078	
1.6994525416321465E12	1.293621614808434	
1.6994525416331228E12	1.2915781686597867	
1.6994525416340994E12	1.2956650609570814	
1.6994525416350757E12	1.2922993849475446	
1.699452541636052E12	1.2938620202376867	
1.6994525416370283E12	1.2948236419546972	
1.6994525416380046E12	1.2921791822329183	
1.699452541638981E12	1.2953044528132025	
1.6994525416399575E12	1.2895347225111393	
1.6994525416409338E12	1.2926599930914235	
1.6994525416419102E12	1.296987290817971	
1.6994525416428865E12	1.2961458718155867	
1.6994525416438628E12	1.2973478989618499	
1.699452541644839E12	1.2980691152496078	
1.6994525416458157E12	1.2954246555278288	
1.699452541646792E12	1.2971074935325972	
1.6994525416477683E12	1.293621614808434	
1.6994525416487446E12	1.2967468853887183	
1.699452541649721E12	1.296987290817971	
1.6994525416506973E12	1.2971074935325972	
1.6994525416516738E12	1.2948236419546972	
1.6994525416526501E12	1.2977085071057288	
1.6994525416536265E12	1.295905466386334	
1.6994525416546028E12	1.2980691152496078	
1.699452541655579E12	1.2993913451104973	
1.6994525416565554E12	1.2993913451104973	
1.699452541657532E12	1.298549926108113	
1.6994525416585083E12	1.298189317964234	
1.6994525416594846E12	1.299271142395871	
1.699452541660461E12	1.3034782374077922	
1.6994525416614373E12	1.298189317964234	
1.6994525416624136E12	1.301194385829892	
1.6994525416633901E12	1.3027570211200343	
1.6994525416643665E12	1.3009539804006394	
1.6994525416653428E12	1.301194385829892	
1.699452541666319E12	1.300473169542134	
1.6994525416672954E12	1.3005933722567604	
1.6994525416682717E12	1.2997519532543762	
1.6994525416692483E12	1.3035984401224185	
1.6994525416702246E12	1.3021560075469025	
1.699452541671201E12	1.3014347912591446	
1.6994525416721772E12	1.3003529668275078	
1.6994525416731536E12	1.3010741831152657	
1.69945254167413E12	1.2998721559690025	
1.6994525416751064E12	1.3017953994030236	
1.6994525416760828E12	1.296626682674092	
1.699452541677059E12	1.296987290817971	
1.6994525416780354E12	1.3044398591248028	
1.6994525416790117E12	1.2999923586836288	
1.699452541679988E12	1.2991509396812446	
1.6994525416809646E12	1.2991509396812446	
1.699452541681941E12	1.3002327641128815	
1.6994525416829172E12	1.3016751966883973	
1.6994525416838936E12	1.303358034693166	
1.6994525416848699E12	1.3041994536955501	
1.6994525416858462E12	1.3035984401224185	
1.6994525416868228E12	1.2987903315373657	
1.699452541687799E12	1.3031176292639133	
1.6994525416887754E12	1.3020358048322762	
1.6994525416897517E12	1.3062428998441975	
1.699452541690728E12	1.3039590482662975	
1.6994525416917043E12	1.3043196564101764	
1.699452541692681E12	1.2995115478251236	
1.6994525416936572E12	1.3005933722567604	
1.6994525416946335E12	1.300833777686013	
1.6994525416956099E12	1.3017953994030236	
1.6994525416965862E12	1.3014347912591446	
1.6994525416975625E12	1.2986701288227394	
1.699452541698539E12	1.2983095206788604	
1.6994525416995154E12	1.3016751966883973	
1.6994525417004917E12	1.3027570211200343	
1.699452541701468E12	1.301194385829892	
1.6994525417024443E12	1.3001125613982552	
1.6994525417034207E12	1.2973478989618499	
1.6994525417043972E12	1.298910534251992	
1.6994525417053735E12	1.2990307369666183	
1.6994525417063499E12	1.2990307369666183	
1.6994525417073262E12	1.3003529668275078	
1.6994525417083025E12	1.301554993973771	
1.6994525417092788E12	1.2993913451104973	
1.6994525417102554E12	1.3007135749713867	
1.6994525417112317E12	1.303358034693166	
1.699452541712208E12	1.2987903315373657	
1.6994525417131843E12	1.2987903315373657	
1.6994525417141606E12	1.2996317505397499	
1.699452541715137E12	1.298189317964234	
1.6994525417161135E12	1.2960256691009604	
1.6994525417170898E12	1.2986701288227394	
1.6994525417180662E12	1.2993913451104973	
1.6994525417190425E12	1.3013145885445183	
1.6994525417200188E12	1.2986701288227394	
1.699452541720995E12	1.3010741831152657	
1.6994525417219717E12	1.3028772238346606	
1.699452541722948E12	1.302636818405408	
1.6994525417239243E12	1.300833777686013	
1.6994525417249006E12	1.3009539804006394	
1.699452541725877E12	1.3031176292639133	
1.6994525417268533E12	1.3009539804006394	
1.6994525417278298E12	1.303358034693166	
1.6994525417288062E12	1.3020358048322762	
1.6994525417297825E12	1.302636818405408	
1.6994525417307588E12	1.3009539804006394	
1.699452541731735E12	1.300833777686013	
1.6994525417327114E12	1.3014347912591446	
1.699452541733688E12	1.300833777686013	
1.6994525417346643E12	1.3001125613982552	
1.6994525417356406E12	1.3001125613982552	
1.699452541736617E12	1.296626682674092	
1.6994525417375933E12	1.299271142395871	
1.6994525417385696E12	1.2990307369666183	
1.6994525417395461E12	1.2996317505397499	
1.6994525417405225E12	1.2997519532543762	
1.6994525417414988E12	1.3010741831152657	
1.699452541742475E12	1.3003529668275078	
1.6994525417434514E12	1.2995115478251236	
1.6994525417444277E12	1.3003529668275078	
1.6994525417454043E12	1.2963862772448393	
1.6994525417463806E12	1.3005933722567604	
1.699452541747357E12	1.2990307369666183	
1.6994525417483333E12	1.298910534251992	
1.6994525417493096E12	1.2955448582424551	
1.699452541750286E12	1.298549926108113	
1.6994525417512625E12	1.2996317505397499	
1.6994525417522388E12	1.2963862772448393	
1.699452541753215E12	1.302636818405408	
1.6994525417541914E12	1.3007135749713867	
1.6994525417551677E12	1.298910534251992	
1.699452541756144E12	1.2948236419546972	
1.6994525417571206E12	1.3001125613982552	
1.699452541758097E12	1.2956650609570814	
1.6994525417590732E12	1.2987903315373657	
1.6994525417600496E12	1.296266074530213	
