"sep=	"
Shimmer_9D70_TimestampSync_Unix_CAL	Shimmer_9D70_EMG_CH2_24BIT_CAL	
ms	mV	
1.6994526023251965E12	2.4801426108848186	
1.699452602326173E12	2.464275852554145	
1.6994526023271497E12	2.4821860570334664	
1.6994526023281262E12	2.573660322864094	
1.6994526023291028E12	2.6543163443783535	
1.6994526023300793E12	2.7618977739689083	
1.699452602331056E12	2.7582916925301184	
1.6994526023320325E12	2.83594264617872	
1.699452602333009E12	2.967925226838417	
1.6994526023339856E12	3.051345910789082	
1.6994526023349622E12	3.1078411866634514	
1.6994526023359387E12	3.075867264572851	
1.6994526023369153E12	3.064688412112603	
1.6994526023378918E12	3.0817571975895404	
1.6994526023388684E12	3.0652894256857346	
1.699452602339845E12	3.102912875363772	
1.6994526023408215E12	3.087767333320856	
1.699452602341798E12	3.139093892466294	
1.6994526023427747E12	3.374330604989998	
1.699452602343751E12	3.0395660447557025	
1.6994526023447275E12	2.801925277939472	
1.699452602345704E12	2.74747344821375	
1.6994526023466807E12	2.717663174986423	
1.6994526023476572E12	2.668860872848138	
1.6994526023486338E12	2.6538355335198482	
1.6994526023496104E12	2.6749912112940804	
1.699452602350587E12	2.6335212747480004	
1.6994526023515635E12	2.5669289708450203	
1.69945260235254E12	2.7205480401374547	
1.6994526023535166E12	2.8954429899187475	
1.6994526023544932E12	2.9566261716635434	
1.6994526023554697E12	2.9800657010156755	
1.6994526023564463E12	3.0224972592787656	
1.6994526023574229E12	3.0484610456380503	
1.6994526023583994E12	3.085844089886835	
1.699452602359376E12	3.144743420053731	
1.6994526023603525E12	3.1442626091952257	
1.699452602361329E12	3.062404560534703	
1.6994526023623057E12	3.0515863162183345	
1.6994526023632822E12	3.085122873599077	
1.6994526023642588E12	3.083560238308935	
1.6994526023652354E12	3.080434967728651	
1.699452602366212E12	3.076348075431356	
1.6994526023671885E12	3.068534898980645	
1.699452602368165E12	3.0414892881897235	
1.6994526023691416E12	3.0156457045450655	
1.6994526023701182E12	2.9696080648431855	
1.6994526023710947E12	2.8364234570372253	
1.6994526023720713E12	2.7480744617868815	
1.6994526023730479E12	2.6955458754951804	
1.6994526023740244E12	2.7626189902566662	
1.699452602375001E12	2.782332235455382	
1.6994526023759775E12	2.7768029105825716	
1.699452602376954E12	2.8207971041358038	
1.6994526023779307E12	2.8645508922597838	
1.6994526023789072E12	2.9283785337263586	
1.6994526023798838E12	3.0001395543582703	
1.6994526023808604E12	3.0337963144536393	
1.699452602381837E12	3.041729693618976	
1.6994526023828135E12	3.0383640176094393	
1.69945260238379E12	3.0660106419734925	
1.6994526023847666E12	3.0712995614170504	
1.6994526023857432E12	3.026103340717555	
1.6994526023867197E12	3.0021830005069177	
1.6994526023876963E12	2.9156370459759686	
1.6994526023886729E12	2.9156370459759686	
1.6994526023896494E12	2.8598629863893574	
1.699452602390626E12	2.755527030093713	
1.6994526023916025E12	2.750117907935529	
1.699452602392579E12	2.7447087857773447	
1.6994526023935557E12	2.793871696059509	
1.6994526023945322E12	2.859622580960105	
1.6994526023955088E12	2.9139542079712	
1.6994526023964854E12	2.930061371731127	
1.699452602397462E12	2.9528998875101276	
1.6994526023984385E12	3.0473792212064135	
1.699452602399415E12	3.017328542549834	
1.6994526024003916E12	2.9730939435673487	
1.6994526024013682E12	2.984032390598344	
1.6994526024023447E12	2.7901454119060927	
1.6994526024033213E12	2.6989115515047177	
1.6994526024042979E12	2.77163419385364	
1.6994526024052744E12	2.893038935626221	
1.699452602406251E12	3.0047072575140703	
1.6994526024072275E12	3.0878875360354825	
1.699452602408204E12	3.1106058490998567	
1.6994526024091807E12	3.1204624716992146	
1.6994526024101572E12	3.121784701560104	
1.6994526024111338E12	3.102191659076014	
1.6994526024121104E12	3.0633661822517135	
1.699452602413087E12	3.0625247632493293	
1.6994526024140635E12	3.174193085137179	
1.69945260241504E12	3.1310403105863305	
1.6994526024160166E12	3.0349983415999024	
1.6994526024169932E12	3.0101163796722545	
1.6994526024179697E12	2.994009215912328	
1.6994526024189463E12	2.976940430435391	
1.6994526024199229E12	2.9003713012184265	
1.6994526024208994E12	2.8697196089887154	
1.699452602421876E12	2.8464002823512096	
1.6994526024228525E12	2.8108202788218195	
1.699452602423829E12	2.859622580960105	
1.6994526024248057E12	3.4506593287777103	
1.6994526024257822E12	3.4424855441831204	
1.6994526024267588E12	3.242227821615675	
1.6994526024277354E12	3.166019300542589	
1.699452602428712E12	3.007712325379728	
1.6994526024296885E12	2.8233213611429564	
1.699452602430665E12	2.6569608041001325	
1.6994526024316416E12	2.57967045859541	
1.6994526024326182E12	2.5117559248315406	
1.6994526024335947E12	2.4052563196726227	
1.699452602434571E12	2.4676415285636817	
1.6994526024355476E12	2.7760816942948137	
1.6994526024365242E12	2.9276573174386007	
1.6994526024375007E12	2.944846305630164	
1.6994526024384773E12	2.9341482640284218	
1.6994526024394539E12	2.925854276719206	
1.6994526024404304E12	2.915396640546716	
1.699452602441407E12	2.861545824394126	
1.6994526024423835E12	2.8528912289410306	
1.69945260244336E12	2.72788040572966	
1.6994526024443367E12	2.624626273865653	
1.6994526024453132E12	2.561519848686836	
1.6994526024462898E12	2.5598370106820676	
1.6994526024472664E12	2.651070871083443	
1.699452602448243E12	2.715018715264644	
1.6994526024492195E12	2.8044495349466247	
1.699452602450196E12	2.8946015709163633	
1.6994526024511726E12	2.9033763690840844	
1.6994526024521492E12	3.013962866540297	
1.6994526024531257E12	3.1907810597556105	
1.6994526024541023E12	3.252925863217417	
1.6994526024550789E12	3.2508824170687696	
1.6994526024560554E12	3.2314095772993063	
1.699452602457032E12	3.2046043719376374	
1.6994526024580085E12	3.1738324769933	
1.699452602458985E12	3.0656500338296135	
1.6994526024599617E12	3.0462973967747766	
1.6994526024609382E12	3.1662597059718416	
1.6994526024619148E12	3.2443914704789485	
1.6994526024628914E12	3.210854913098206	
1.699452602463868E12	3.087286522462351	
1.6994526024648445E12	2.9234502224266796	
1.699452602465821E12	2.882461096739105	
1.6994526024667976E12	2.8674357574108154	
1.6994526024677742E12	2.863829675972026	
1.6994526024687507E12	2.8632286623988943	
1.6994526024697273E12	2.8603437972478627	
1.6994526024707039E12	2.9188825192708796	
1.6994526024716804E12	3.0096355688137493	
1.699452602472657E12	3.066130844688119	
1.6994526024736335E12	3.110365443670604	
1.69945260247461E12	3.1184190255505673	
1.6994526024755867E12	3.097143145061709	
1.6994526024765632E12	3.0660106419734925	
1.6994526024775398E12	3.075506656428972	
1.6994526024785164E12	3.0779107107214982	
1.699452602479493E12	3.0550721949424977	
1.6994526024804695E12	2.9911243507612966	
1.699452602481446E12	2.8527710262264043	
1.6994526024824226E12	2.7439875694895868	
1.6994526024833992E12	2.697589321643828	
1.6994526024843757E12	2.7052822953799125	
1.6994526024853523E12	2.668860872848138	
1.6994526024863289E12	2.6747508058648277	
1.6994526024873054E12	2.7234329052884862	
1.699452602488282E12	2.7930302770571247	
1.6994526024892585E12	2.8300527131620306	
1.699452602490235E12	2.9099875183885318	
1.6994526024912117E12	2.9408796160474955	
1.6994526024921882E12	2.9745363761428645	
1.6994526024931648E12	3.015886109974318	
1.6994526024941414E12	3.0712995614170504	
1.699452602495118E12	3.1158947685434146	
1.6994526024960945E12	3.1303190942985726	
1.699452602497071E12	3.103273483507651	
1.6994526024980476E12	3.0410084773312183	
1.6994526024990242E12	2.904698598944974	
1.6994526025000007E12	2.820556698706551	
1.6994526025009773E12	2.768268517844103	
1.6994526025019539E12	2.7643018282614347	
1.6994526025029304E12	2.8649115004036627	
1.699452602503907E12	2.8498861610753727	
1.6994526025048835E12	2.85192960722402	
1.69945260250586E12	2.8859469754632685	
1.6994526025068367E12	2.8471214986389675	
1.6994526025078132E12	2.8207971041358038	
1.6994526025087898E12	2.8649115004036627	
1.6994526025097664E12	2.85192960722402	
1.699452602510743E12	2.9710504974187013	
1.6994526025117195E12	3.2992039083485496	
1.699452602512696E12	3.2380207266037537	
1.6994526025136726E12	3.1643364625378205	
1.6994526025146492E12	3.113731119680141	
1.6994526025156257E12	3.0274255705784445	
1.6994526025166023E12	2.964078739970375	
1.6994526025175789E12	2.9490534006420854	
1.6994526025185554E12	2.944846305630164	
1.699452602519532E12	2.8335385918861937	
1.6994526025205085E12	2.750598718794034	
1.699452602521485E12	2.969007051270054	
1.6994526025224617E12	3.0731026021364456	
1.6994526025234382E12	3.0825986165919246	
1.6994526025244148E12	3.1229867287063673	
1.699452602525391E12	3.113370511536262	
1.6994526025263677E12	3.0580772628081556	
1.6994526025273442E12	2.9145552215443318	
1.6994526025283208E12	2.857458932096831	
1.6994526025292974E12	2.8244031855745937	
1.699452602530274E12	2.832817375598436	
1.6994526025312505E12	2.8933995437701	
1.699452602532227E12	2.9544625228002697	
1.6994526025332036E12	2.995091040343965	
1.6994526025341802E12	3.0160063126889445	
1.6994526025351567E12	3.0178093534083392	
1.6994526025361333E12	2.9865566476054966	
1.6994526025371099E12	2.8721236632812417	
1.6994526025380864E12	2.8750085284322733	
1.699452602539063E12	2.7114126338258546	
1.6994526025400396E12	2.553586469521499	
1.699452602541016E12	2.571737079430073	
1.6994526025419927E12	2.6410940457694587	
1.6994526025429692E12	2.811421292394951	
1.6994526025439458E12	2.954222117371017	
1.6994526025449224E12	3.0526681406499714	
1.699452602545899E12	3.1192604445529515	
1.6994526025468755E12	3.1102452409559778	
1.699452602547852E12	3.116014971258041	
1.6994526025488286E12	3.1211836879869725	
1.6994526025498052E12	3.1295978780108147	
1.6994526025507817E12	3.125150377569641	
1.6994526025517583E12	3.035599355173034	
1.6994526025527349E12	2.9440048866277797	
1.6994526025537114E12	3.08993098218413	
1.699452602554688E12	3.088488549608614	
1.6994526025556646E12	2.9075834640960054	
1.699452602556641E12	2.790986830908477	
1.6994526025576177E12	2.8001222372200774	
1.6994526025585942E12	2.7813706137383716	
1.6994526025595708E12	2.7756008834363084	
1.6994526025605474E12	2.8490447420729885	
1.699452602561524E12	3.521338524977985	
1.6994526025625005E12	3.401135810351667	
1.699452602563477E12	3.2588157962341064	
1.6994526025644536E12	3.255930931083075	
1.6994526025654302E12	3.182126464302516	
1.6994526025664067E12	3.160369772955152	
1.6994526025673833E12	3.0712995614170504	
1.6994526025683599E12	2.9102279238177844	
1.6994526025693364E12	2.527141872303709	
1.699452602570313E12	2.366791450992201	
1.6994526025712896E12	2.335779150618611	
1.699452602572266E12	2.5783482287345207	
1.6994526025732427E12	2.671865940713796	
1.6994526025742192E12	2.7320875007415815	
1.6994526025751958E12	2.8031273050857353	
1.6994526025761724E12	2.920204749131769	
1.699452602577149E12	3.018410366981471	
1.6994526025781255E12	3.0806753731579035	
1.699452602579102E12	3.008794149811365	
1.6994526025800786E12	2.9541019146563907	
1.6994526025810552E12	2.922488600709669	
1.6994526025820317E12	2.917079478551485	
1.6994526025830083E12	3.0377630040363077	
1.6994526025839849E12	3.1429403793343362	
1.6994526025849614E12	3.1747940987103105	
1.699452602585938E12	3.206768020800911	
1.6994526025869146E12	3.1941467357651474	
1.699452602587891E12	3.1862133565998105	
1.6994526025888677E12	3.191382073328742	
1.6994526025898442E12	3.154960650796968	
1.6994526025908208E12	3.128636256293804	
1.6994526025917974E12	3.0723813858486873	
1.699452602592774E12	3.068895507124524	
1.6994526025937505E12	2.9883596883248913	
1.699452602594727E12	2.848083120355978	
1.6994526025957036E12	2.813344535828972	
1.6994526025966802E12	2.7447087857773447	
1.6994526025976567E12	2.667057832128743	
1.6994526025986333E12	2.6386899914769324	
1.6994526025996099E12	2.745910812923608	
1.6994526026005864E12	2.7782453431580874	
1.699452602601563E12	2.812863724970467	
1.6994526026025396E12	2.831014334879041	
1.699452602603516E12	2.8381062950419937	
1.6994526026044927E12	2.8950823817748685	
1.6994526026054692E12	2.9551837390880276	
1.6994526026064458E12	2.9664827942629013	
1.6994526026074224E12	3.1134907142508883	
1.699452602608399E12	3.133203959449604	
1.6994526026093755E12	3.219990319409806	
1.699452602610352E12	3.2667491753994438	
1.6994526026113286E12	3.2520844442150327	
1.6994526026123052E12	3.1525565965044415	
1.6994526026132817E12	3.0307912465879814	
1.6994526026142583E12	3.0384842203240656	
1.6994526026152349E12	3.0220164484202603	
1.6994526026162112E12	2.9800657010156755	
1.6994526026171877E12	2.9830707688813334	
1.6994526026181643E12	3.012760839394034	
1.6994526026191409E12	3.002303203221544	
1.6994526026201174E12	2.956145360805038	
1.699452602621094E12	2.84051034933452	
1.6994526026220706E12	2.777403924155703	
1.699452602623047E12	2.7737978427169137	
1.6994526026240237E12	2.8300527131620306	
1.6994526026250002E12	2.87837420444181	
1.6994526026259768E12	2.9363119128916955	
1.6994526026269534E12	2.972012119135712	
1.69945260262793E12	3.012039623106276	
1.6994526026289065E12	3.0716601695609294	
1.699452602629883E12	3.114452335967899	
1.6994526026308596E12	3.0265841515760603	
1.6994526026318362E12	2.9983365136388755	
1.6994526026328127E12	2.917079478551485	
1.6994526026337893E12	2.9884798910395176	
1.6994526026347659E12	3.6160582641035237	
1.6994526026357424E12	3.530473931289585	
1.699452602636719E12	3.2266014687142532	
1.6994526026376956E12	3.069256115268403	
1.699452602638672E12	2.8800570424465786	
1.6994526026396487E12	2.736895609326634	
1.6994526026406252E12	2.7211490537105862	
1.6994526026416018E12	2.6723467515723014	
1.6994526026425784E12	2.6335212747480004	
1.699452602643555E12	2.6111635698275055	
1.6994526026445315E12	2.8556558913774364	
1.699452602645508E12	3.005668879231081	
1.6994526026464846E12	2.996172864775602	
1.6994526026474612E12	2.996533472919481	
1.6994526026484377E12	3.0149244882573076	
1.6994526026494143E12	2.9998991489290177	
1.6994526026503909E12	3.0554328030863767	
1.6994526026513674E12	3.0644480066833504	
1.699452602652344E12	3.0027840140800492	
1.6994526026533206E12	2.916959275836858	
1.699452602654297E12	2.889192448758179	
1.6994526026552737E12	2.961073672104717	
1.6994526026562502E12	3.13236254044722	
1.6994526026572268E12	3.0621641551054504	
1.6994526026582034E12	2.919483532844011	
1.69945260265918E12	2.8735660958567575	
1.6994526026601565E12	2.831735551166799	
1.699452602661133E12	2.876811569151668	
1.6994526026621096E12	2.960592861246212	
1.6994526026630862E12	2.9773010385792698	
1.6994526026640627E12	2.924652249572943	
1.6994526026650393E12	2.850727580077757	
1.6994526026660159E12	2.828730483301141	
1.6994526026669924E12	2.8284900778718884	
1.699452602667969E12	2.834019402744699	
1.6994526026689456E12	2.8485639312144833	
1.699452602669922E12	2.927416912009348	
1.6994526026708987E12	3.0414892881897235	
1.6994526026718752E12	3.0746652374265877	
1.6994526026728518E12	3.104114902510035	
1.6994526026738284E12	3.155441461655473	
1.699452602674805E12	3.1650576788255784	
1.6994526026757815E12	3.1513545693581784	
1.699452602676758E12	3.1243089585672568	
1.6994526026777346E12	3.0128810421086603	
1.6994526026787112E12	2.753243178515813	
1.6994526026796877E12	2.6455415462106324	
1.6994526026806643E12	2.5973402576454787	
1.6994526026816409E12	2.598181676647863	
1.6994526026826174E12	2.7257167568663863	
1.699452602683594E12	2.8048101430905037	
1.6994526026845706E12	2.8658731221206732	
1.699452602685547E12	2.901332922935437	
1.6994526026865237E12	2.9613140775339697	
1.6994526026875002E12	3.0117992176770234	
1.6994526026884768E12	3.0221366511348866	
1.6994526026894534E12	3.0428115180506135	
1.69945260269043E12	3.0380034094655604	
1.6994526026914065E12	2.9976152973511176	
1.699452602692383E12	3.0327144900220024	
1.6994526026933596E12	3.0821178057334193	
1.6994526026943362E12	3.0863249007453404	
1.6994526026953127E12	3.0628853713932083	
1.6994526026962893E12	3.0896905767548772	
1.6994526026972659E12	3.075146048285093	
1.6994526026982424E12	3.0399266528995814	
1.699452602699219E12	2.9775414440085224	
1.6994526027001956E12	2.9676848214091645	
1.699452602701172E12	3.0145638801134287	
1.6994526027021487E12	2.9888404991833966	
1.6994526027031252E12	2.9573473879513013	
1.6994526027041018E12	2.9643191453996276	
1.6994526027050784E12	2.9734545517112276	
1.699452602706055E12	3.029469016727092	
1.6994526027070315E12	3.1377716626054046	
1.6994526027080078E12	3.144743420053731	
1.6994526027089844E12	3.1124088898192515	
1.699452602709961E12	3.0251417190005445	
1.6994526027109375E12	2.9215269789926586	
1.699452602711914E12	2.8744075148591417	
1.6994526027128906E12	2.9057804233766107	
1.6994526027138672E12	3.0175689479790866	
1.6994526027148438E12	3.045696383201645	
1.6994526027158203E12	3.018169961552218	
1.6994526027167969E12	3.025021516285918	
1.6994526027177734E12	3.081636994874914	
1.69945260271875E12	3.07262179127794	
1.6994526027197266E12	3.0610823306738135	
1.6994526027207031E12	2.977781849437775	
1.6994526027216797E12	2.8453184579195727	
1.6994526027226562E12	2.7661048689808294	
1.6994526027236328E12	2.826446631723241	
1.6994526027246094E12	3.4932110897554267	
1.699452602725586E12	3.4960959549064583	
1.6994526027265625E12	3.3252878974224607	
1.699452602727539E12	3.099426996639609	
1.6994526027285156E12	2.7932706824863773	
1.6994526027294922E12	2.671505332569917	
1.6994526027304688E12	2.6146494485516687	
1.6994526027314453E12	2.513438762836309	
1.6994526027324219E12	2.4558616625303027	
1.6994526027333984E12	2.417516996564507	
1.699452602734375E12	2.4445626073554285	
1.6994526027353516E12	2.698671146075465	
1.6994526027363281E12	2.7889433847598295	
1.6994526027373047E12	2.741463312482434	
1.6994526027382812E12	2.6818427660277804	
1.6994526027392578E12	2.7469926373552447	
1.6994526027402344E12	2.8338992000300727	
1.699452602741211E12	3.0027840140800492	
1.6994526027421875E12	3.1579657186626258	
1.699452602743164E12	3.230928766440801	
1.6994526027441406E12	3.232852009874822	
1.6994526027451172E12	3.2306883610115484	
1.6994526027460938E12	3.241626808042543	
1.6994526027470703E12	3.2171054542587743	
1.6994526027480469E12	3.184530518595042	
1.6994526027490234E12	3.11637557940192	
1.69945260275E12	3.034878138885276	
1.6994526027509766E12	3.0587984790959135	
1.6994526027519531E12	3.0883683468939878	
1.6994526027529297E12	3.0773096971483667	
1.6994526027539062E12	3.06577023654424	
1.6994526027548828E12	2.990162729044286	
1.6994526027558594E12	2.991364756190549	
1.699452602756836E12	2.9704494838455697	
1.6994526027578125E12	2.9052996125181054	
1.699452602758789E12	2.7692301395611136	
1.6994526027597656E12	2.8031273050857353	
1.6994526027607422E12	2.8113010896803248	
1.6994526027617188E12	2.818272847128651	
1.6994526027626953E12	2.865752919406047	
1.6994526027636719E12	2.8814994750220944	
1.6994526027646484E12	2.8781337990125575	
1.699452602765625E12	2.912030964537179	
1.6994526027666016E12	2.9521786712223697	
1.6994526027675781E12	2.8092576435316774	
1.6994526027685547E12	2.788702979330577	
1.6994526027695312E12	2.785697911464919	
1.6994526027705078E12	2.8057717648075142	
1.6994526027714844E12	2.9299411690165007	
1.699452602772461E12	3.02562252985905	
1.6994526027734375E12	3.0459367886308977	
1.699452602774414E12	3.0779107107214982	
1.6994526027753906E12	3.085483481742956	
1.6994526027763672E12	3.0788723324385088	
1.6994526027773438E12	3.099426996639609	
1.6994526027783203E12	3.015886109974318	
1.6994526027792969E12	3.029829624870971	
1.6994526027802734E12	3.0630055741078346	
1.69945260278125E12	3.046417599489403	
1.6994526027822266E12	3.0110780013892655	
1.6994526027832031E12	3.03019023301485	
1.6994526027841797E12	3.0346377334560235	
1.6994526027851562E12	3.0193719886984813	
1.6994526027861328E12	2.9946102294854597	
1.6994526027871094E12	2.9971344864926124	
1.699452602788086E12	3.042691315335987	
1.6994526027890625E12	3.0693763179830293	
1.699452602790039E12	3.0882481441793614	
1.6994526027910156E12	3.057476249235024	
1.6994526027919922E12	2.982109147164323	
1.6994526027929688E12	2.9257340740045796	
1.6994526027939453E12	2.8936399491993527	
1.6994526027949219E12	2.851448796365515	
1.6994526027958984E12	2.8972460306381422	
1.699452602796875E12	2.9678050241237908	
1.6994526027978516E12	3.03475793617065	
1.699452602798828E12	3.0848824681698246	
1.6994526027998044E12	3.0961815233446983	
1.699452602800781E12	3.1181786201213146	
1.6994526028017576E12	3.143661595622094	
1.6994526028027341E12	3.1710678145568947	
1.6994526028037107E12	3.1786405855783526	
1.6994526028046873E12	3.1465464607731257	
1.6994526028056638E12	3.1042351052246615	
1.6994526028066404E12	3.060962127959187	
1.699452602807617E12	3.0193719886984813	
1.6994526028085935E12	2.874167109429889	
1.69945260280957E12	2.8387073086151253	
1.6994526028105466E12	2.8421931873392885	
1.6994526028115232E12	2.886908597180279	
1.6994526028124998E12	2.9424422513376376	
1.6994526028134763E12	2.960232253102333	
1.699452602814453E12	2.9849940123153544	
1.6994526028154294E12	2.9473705626373166	
1.699452602816406E12	2.861906432538005	
1.6994526028173826E12	2.7668260852685873	
1.6994526028183591E12	3.0645682093979767	
1.6994526028193357E12	3.4515007477800945	
1.6994526028203123E12	3.355578981508293	
1.6994526028212888E12	3.1876557891753263	
1.6994526028222654E12	2.9676848214091645	
1.699452602823242E12	2.834380010888578	
1.6994526028242185E12	2.772836220999903	
1.699452602825195E12	2.716821755984039	
1.6994526028261716E12	2.5937341762066892	
1.6994526028271482E12	2.321595230292705	
1.6994526028281248E12	2.2667827924231045	
1.6994526028291013E12	2.7091287822479546	
1.699452602830078E12	2.903616774513337	
1.6994526028310544E12	2.955784752661159	
1.699452602832031E12	2.966723199692154	
1.6994526028330076E12	3.0323538818781235	
1.6994526028339841E12	3.0698571288415346	
1.6994526028349607E12	3.0565146275180135	
1.6994526028359373E12	3.0591590872397925	
1.6994526028369138E12	2.9573473879513013	
1.6994526028378904E12	2.8203162932772985	
1.699452602838867E12	2.742545136914071	
1.6994526028398435E12	2.7683887205587294	
1.69945260284082E12	2.9466493463495587	
1.6994526028417966E12	3.0524277352207188	
1.6994526028427732E12	3.0866855088892193	
1.6994526028437498E12	3.1169765929750515	
1.6994526028447263E12	3.1465464607731257	
1.699452602845703E12	3.2050851827961426	
1.6994526028466794E12	3.2766057979988017	
1.699452602847656E12	3.3052140440798654	
1.6994526028486326E12	3.1981134253478163	
1.6994526028496091E12	3.042330707192108	
1.6994526028505857E12	3.0071113118065966	
1.6994526028515623E12	2.9537413065125118	
1.6994526028525388E12	2.7650230445491926	
1.6994526028535154E12	2.7606957468226447	
1.699452602854492E12	2.726678378583397	
1.6994526028554685E12	2.7269187840126494	
1.699452602856445E12	2.786058519608798	
1.6994526028574216E12	2.8464002823512096	
1.6994526028583982E12	2.891836908479958	
1.6994526028593748E12	2.9301815744457533	
1.6994526028603513E12	2.964920158972759	
1.699452602861328E12	2.9206855599902743	
1.6994526028623044E12	2.6834054013179225	
1.699452602863281E12	2.5158428171288354	
1.6994526028642576E12	2.451414162089129	
1.6994526028652341E12	2.5397631573394723	
1.6994526028662107E12	2.647344586930027	
1.6994526028671873E12	2.7572098680984816	
1.6994526028681638E12	2.76706649069784	
1.6994526028691404E12	2.837385078754236	
1.699452602870117E12	2.969487862128559	
1.6994526028710935E12	3.1092836192389672	
1.69945260287207E12	3.244511673193575	
1.6994526028730466E12	3.3220424241275497	
1.6994526028740232E12	3.325047491993208	
1.6994526028749998E12	3.3362263444534555	
1.6994526028759763E12	3.343318304616408	
1.699452602876953E12	3.373128577843735	
1.6994526028779294E12	3.41507932524832	
1.699452602878906E12	3.405703513507467	
1.6994526028798826E12	3.3782972945726666	
1.6994526028808591E12	3.2689128242627175	
1.6994526028818357E12	3.179241599151484	
1.6994526028828123E12	3.1729910579909157	
1.6994526028837888E12	3.1578455159479994	
1.6994526028847654E12	3.130799905157078	
1.699452602885742E12	3.0773096971483667	
1.6994526028867185E12	3.0221366511348866	
1.699452602887695E12	3.0013415815045335	
1.6994526028886716E12	2.998576919068128	
1.699452602889648E12	3.0051880683725756	
1.6994526028906245E12	3.0151648936865603	
1.699452602891601E12	3.027305367863818	
1.6994526028925776E12	3.0263437461468077	
1.6994526028935542E12	3.0092749606698703	
1.6994526028945308E12	2.949293806071338	
1.6994526028955073E12	2.924291641429064	
1.699452602896484E12	2.8521700126532727	
1.6994526028974604E12	2.807574805526909	
1.699452602898437E12	2.790986830908477	
1.6994526028994136E12	2.765864463551577	
1.6994526029003901E12	2.7673068961270926	
1.6994526029013667E12	3.172029436273905	
1.6994526029023433E12	3.5751893411305757	
1.6994526029033198E12	3.414718717104441	
1.6994526029042964E12	3.302329178928834	
1.699452602905273E12	3.22311558999009	
1.6994526029062495E12	3.097143145061709	
1.699452602907226E12	3.0085537443821124	
1.6994526029082026E12	2.923931033285185	
1.6994526029091792E12	2.7794473703043505	
1.6994526029101558E12	2.7014358085118704	
1.6994526029111323E12	2.669101278277391	
1.699452602912109E12	2.7831736544577663	
1.6994526029130854E12	2.8036081159442405	
1.699452602914062E12	2.717182364127918	
1.6994526029150386E12	2.5901280947678997	
1.6994526029160151E12	2.5117559248315406	
1.6994526029169917E12	2.445043418213934	
1.6994526029179683E12	2.5177660605628565	
1.6994526029189448E12	2.66946188642127	
1.6994526029199214E12	2.8295719023035253	
1.699452602920898E12	2.907823869525258	
1.6994526029218745E12	2.9236906278559323	
1.699452602922851E12	2.904698598944974	
1.6994526029238276E12	2.86467109497441	
1.6994526029248042E12	2.9413604269060007	
1.6994526029257808E12	3.034397328026771	
1.6994526029267573E12	3.0228578674226445	
1.699452602927734E12	3.016607326262076	
1.6994526029287104E12	3.052908546079224	
1.699452602929687E12	3.055553005801003	
1.6994526029306636E12	3.07033793970004	
1.6994526029316401E12	3.039445842041076	
1.6994526029326167E12	3.0489418564965556	
1.6994526029335933E12	2.979344484727917	
1.6994526029345698E12	2.9608332666754644	
1.6994526029355464E12	2.9730939435673487	
1.699452602936523E12	2.9835515797398386	
1.6994526029374995E12	3.020814421273997	
1.699452602938476E12	2.992085972478307	
1.6994526029394526E12	2.9692474566993066	
1.6994526029404292E12	2.9371533318940797	
1.6994526029414058E12	2.887629813468037	
1.6994526029423823E12	2.8322163620253042	
1.699452602943359E12	2.8845045428877523	
1.6994526029443354E12	2.9322250205944007	
1.699452602945312E12	2.8992894767867896	
1.6994526029462886E12	2.9562655635196644	
1.6994526029472651E12	2.98186874173507	
1.6994526029482417E12	2.9294603581579954	
1.6994526029492183E12	2.806853589239151	
1.6994526029501948E12	2.7424249341994447	
1.6994526029511714E12	2.7627391929712926	
1.699452602952148E12	2.837745686898115	
1.6994526029531245E12	2.8697196089887154	
1.699452602954101E12	2.8560164995213153	
1.6994526029550776E12	2.863949878686652	
1.6994526029560542E12	2.883182313026863	
1.6994526029570308E12	2.9234502224266796	
1.6994526029580073E12	2.9650403616873855	
1.699452602958984E12	3.008072933523607	
1.6994526029599604E12	3.0794733460116404	
1.699452602960937E12	3.0698571288415346	
1.6994526029619136E12	3.1044755106539146	
1.6994526029628901E12	3.1616920028160416	
1.6994526029638667E12	3.193665924906642	
1.6994526029648433E12	3.2012386959281005	
1.6994526029658198E12	3.2080902506618005	
1.6994526029667964E12	3.196310384628421	
1.699452602967773E12	3.186453762029063	
1.6994526029687495E12	3.1537586236507047	
1.699452602969726E12	3.1514747720728047	
1.6994526029707026E12	3.1453444336268626	
1.6994526029716792E12	3.116495782116546	
1.6994526029726558E12	3.067693479978261	
1.6994526029736323E12	3.0710591559877978	
1.699452602974609E12	3.1014704427882562	
1.6994526029755854E12	3.679645500140846	
1.699452602976562E12	3.7373428031614786	
1.6994526029775386E12	3.6331270495804606	
1.6994526029785151E12	3.4311864890082466	
1.6994526029794917E12	3.261580458670512	
1.699452602980468E12	3.132001932303341	
1.6994526029814446E12	3.039445842041076	
1.6994526029824211E12	2.943043264910769	
1.6994526029833977E12	2.8188738607017827	
1.6994526029843743E12	2.665976007697106	
1.6994526029853508E12	2.5719774848593255	
1.6994526029863274E12	2.7645422336906873	
1.699452602987304E12	2.9116703563933	
1.6994526029882805E12	2.9490534006420854	
1.699452602989257E12	2.940759413332869	
1.6994526029902336E12	2.9299411690165007	
1.6994526029912102E12	2.996293067490228	
1.6994526029921868E12	3.0970229423470825	
1.6994526029931633E12	3.142459568475831	
1.69945260299414E12	3.1048361187977935	
1.6994526029951165E12	2.9514574549346118	
1.699452602996093E12	2.77620189700944	
1.6994526029970696E12	2.644579924493622	
1.6994526029980461E12	2.488196192764782	
1.6994526029990227E12	2.4830274760358506	
1.6994526029999993E12	2.556591537387157	
1.6994526030009758E12	2.70732574152856	
1.6994526030019524E12	2.8970056252088896	
1.699452603002929E12	3.0334357063097603	
1.6994526030039055E12	3.1109664572437357	
1.699452603004882E12	3.163735448964689	
1.6994526030058586E12	3.1733516661347947	
1.6994526030068352E12	3.1517151775020573	
1.6994526030078118E12	3.097984564064093	
1.6994526030087883E12	3.0821178057334193	
1.699452603009765E12	2.854574066945799	
1.6994526030107415E12	2.654196141663727	
1.699452603011718E12	2.5969796495015998	
1.6994526030126946E12	2.604672623237684	
1.6994526030136711E12	2.6425364783449745	
1.6994526030146477E12	2.7177833777010494	
1.6994526030156243E12	2.7884625739013242	
1.6994526030166008E12	2.821638523138188	
1.6994526030175774E12	2.8504871746485043	
1.699452603018554E12	2.871041838849605	
1.6994526030195305E12	2.889192448758179	
1.699452603020507E12	2.9589100232414434	
1.6994526030214836E12	3.055553005801003	
1.6994526030224602E12	3.1735920715640473	
1.6994526030234368E12	3.2604986342388753	
1.6994526030244133E12	3.3464435751966923	
1.69945260302539E12	3.378056889143414	
1.6994526030263665E12	3.353174927215766	
1.699452603027343E12	3.339471817748366	
1.6994526030283196E12	3.29559782690976	
1.6994526030292961E12	3.1756355177126947	
1.6994526030302727E12	3.0663712501173714	
1.6994526030312493E12	2.970930294704075	
1.6994526030322258E12	2.968285834982296	
1.6994526030332024E12	3.0874067251769772	
1.699452603034179E12	3.0622843578200767	
1.6994526030351555E12	2.9734545517112276	
1.699452603036132E12	3.3906781741791776	
1.6994526030371086E12	3.1725102471324105	
1.6994526030380852E12	3.0170881371205813	
1.6994526030390618E12	2.890634881333695	
1.6994526030400383E12	2.8276486588695042	
1.699452603041015E12	2.842313390053915	
1.6994526030419915E12	2.8476023094974727	
1.699452603042968E12	2.873325690427505	
1.6994526030439446E12	2.791347439052356	
1.6994526030449211E12	2.605994853098574	
1.6994526030458977E12	2.5119963302607933	
1.6994526030468743E12	2.7014358085118704	
1.6994526030478508E12	2.8402699439052674	
1.6994526030488274E12	2.9544625228002697	
1.699452603049804E12	2.992446580622186	
1.6994526030507805E12	3.063967195824845	
1.699452603051757E12	3.1291170671523094	
1.6994526030527336E12	3.1918628841872474	
1.6994526030537102E12	3.2572531609439643	
1.6994526030546868E12	3.2659077563970595	
1.6994526030556633E12	3.2463147139129696	
1.69945260305664E12	3.2207115356975637	
1.6994526030576165E12	3.1811648425855052	
1.699452603058593E12	3.1650576788255784	
1.6994526030595696E12	3.1457050417707415	
1.6994526030605461E12	3.1407767304710625	
1.6994526030615227E12	3.1211836879869725	
1.6994526030624993E12	3.0743046292827088	
1.6994526030634758E12	3.0700975342707872	
1.6994526030644524E12	3.0889693604671193	
1.699452603065429E12	3.0829592247358035	
1.6994526030664055E12	3.0764682781459824	
1.699452603067382E12	3.063125776822461	
1.6994526030683586E12	2.937273534608706	
1.6994526030693352E12	2.803367710514988	
1.6994526030703118E12	2.7033590519458914	
1.699452603071288E12	2.6983105379315857	
1.6994526030722646E12	2.8180324416993985	
1.6994526030732412E12	2.882581299453731	
1.6994526030742178E12	2.9627565101094855	
1.6994526030751943E12	2.973214146281975	
1.699452603076171E12	2.954582725514896	
1.6994526030771475E12	2.9446059002009113	
1.699452603078124E12	2.9214067762780322	
1.6994526030791006E12	2.9049390043742265	
1.6994526030800771E12	2.9397977916158586	
1.6994526030810537E12	2.950736238646854	
1.6994526030820303E12	2.929700763587248	
1.6994526030830068E12	2.9210461681341533	
1.6994526030839834E12	2.9252532631460744	
1.69945260308496E12	3.002303203221544	
1.6994526030859365E12	3.117216998404304	
1.699452603086913E12	3.1705870036983894	
1.6994526030878896E12	3.1985942362063216	
1.6994526030888662E12	3.2072488316594163	
1.6994526030898428E12	3.2061670072277795	
1.6994526030908193E12	3.200998290498848	
1.699452603091796E12	3.1562828806578573	
1.6994526030927725E12	3.021896245705634	
1.699452603093749E12	2.86238724339651	
1.6994526030947256E12	2.965280767116638	
1.6994526030957021E12	3.0182901642668445	
1.6994526030966787E12	2.76935034227574	
1.6994526030976553E12	2.6395314104793166	
1.6994526030986318E12	2.625828301011916	
1.6994526030996084E12	2.6432576946327324	
1.699452603100585E12	2.750839124223287	
1.6994526031015615E12	2.8728448795689996	
1.699452603102538E12	2.8621468379672574	
1.6994526031035146E12	2.8694792035594627	
1.6994526031044912E12	2.8830621103122365	
1.6994526031054678E12	3.0114386095331445	
1.6994526031064443E12	3.161812205530668	
1.699452603107421E12	3.1662597059718416	
1.6994526031083975E12	3.1197412554114567	
1.699452603109374E12	3.0149244882573076	
1.6994526031103506E12	2.9979759054949966	
1.6994526031113271E12	3.022978070137271	
1.6994526031123037E12	2.918642113841627	
1.6994526031132803E12	2.717182364127918	
1.6994526031142568E12	2.7371360147558867	
1.6994526031152334E12	2.7572098680984816	
1.69945260311621E12	2.890274273189816	
1.6994526031171865E12	3.0402872610434604	
1.699452603118163E12	3.095700712486193	
1.6994526031191396E12	3.121303890701599	
1.6994526031201162E12	3.209773088666569	
1.6994526031210928E12	3.244271267764322	
1.6994526031220693E12	3.219629711265927	
1.699452603123046E12	3.202921533932869	
1.6994526031240225E12	3.6090865066551974	
1.699452603124999E12	3.2961988404828917	
1.6994526031259756E12	3.0051880683725756	
1.6994526031269521E12	3.0318730710196182	
1.6994526031279287E12	2.940759413332869	
1.6994526031289053E12	2.8497659583607464	
1.6994526031298818E12	2.8120223059680827	
1.6994526031308584E12	2.753964394803571	
1.699452603131835E12	2.656359790527001	
1.6994526031328115E12	2.5547884966677623	
1.699452603133788E12	2.8141859548313564	
1.6994526031347646E12	3.0187709751253498	
1.6994526031357412E12	3.059760100812924	
1.6994526031367178E12	3.0682944935513925	
1.6994526031376943E12	3.155080853511594	
1.699452603138671E12	3.152797001933694	
1.6994526031396475E12	3.145584839056115	
1.699452603140624E12	3.0481004374941714	
1.6994526031416006E12	2.9218875871365375	
1.6994526031425771E12	2.8073344000976563	
1.6994526031435537E12	2.808416224529293	
1.6994526031445303E12	2.884023732029247	
1.6994526031455068E12	2.969007051270054	
1.6994526031464834E12	3.0006203652167756	
1.69945260314746E12	3.0285073950100814	
1.6994526031484365E12	3.093777469052172	
1.699452603149413E12	3.125871593857399	
1.6994526031503896E12	3.119500849982204	
1.6994526031513662E12	3.1066391595171883	
1.6994526031523428E12	3.099426996639609	
1.6994526031533193E12	3.08764713060623	
1.699452603154296E12	3.119140241838325	
1.6994526031552725E12	3.2161438325417637	
1.699452603156249E12	3.2345348478795906	
1.6994526031572256E12	3.1651778815402047	
1.6994526031582021E12	3.106158348658683	
1.6994526031591787E12	3.039085233897197	
1.6994526031601553E12	3.0235790837104024	
1.6994526031611318E12	2.997735500065744	
1.6994526031621082E12	2.965160564402012	
1.6994526031630847E12	2.9159976541198476	
1.6994526031640613E12	2.9071026532375	
1.6994526031650378E12	2.878254001727184	
1.6994526031660144E12	2.956145360805038	
1.699452603166991E12	2.9678050241237908	
1.6994526031679675E12	2.934629074886927	
1.699452603168944E12	2.8625074461111364	
1.6994526031699207E12	2.765624058122324	
1.6994526031708972E12	2.645781951639885	
1.6994526031718738E12	2.6504698575103114	
1.6994526031728503E12	2.7685089232733557	
1.699452603173827E12	2.959150428670696	
1.6994526031748035E12	3.095219901627688	
1.69945260317578E12	3.167702138547358	
1.6994526031767566E12	3.234655050594217	
1.6994526031777332E12	3.2579743772317222	
1.6994526031787097E12	3.2263610632850006	
1.6994526031796863E12	3.1857325457413053	
1.6994526031806628E12	3.150873758499673	
1.6994526031816394E12	3.101831050932135	
1.699452603182616E12	2.995451648487844	
1.6994526031835925E12	2.8625074461111364	
1.699452603184569E12	2.7978383856421774	
1.6994526031855457E12	2.791828249910861	
1.6994526031865222E12	2.681001347025396	
1.6994526031874988E12	2.7265581758687705	
1.6994526031884753E12	2.779327167589724	
1.699452603189452E12	2.9462887382056797	
1.6994526031904285E12	3.084281454596693	
1.699452603191405E12	3.0863249007453404	
1.6994526031923816E12	3.1184190255505673	
1.6994526031933582E12	3.1138513223947673	
1.6994526031943347E12	3.0698571288415346	
1.6994526031953113E12	2.9230896142828007	
1.6994526031962878E12	2.9105885319616633	
1.6994526031972644E12	2.8460396742073306	
1.699452603198241E12	2.6028695825182893	
1.6994526031992175E12	2.6312374231701003	
1.699452603200194E12	2.7587725033886237	
1.6994526032011707E12	2.7219904727129705	
1.6994526032021472E12	3.207849845232548	
1.6994526032031238E12	3.3347839118779397	
1.6994526032041003E12	3.184169910451163	
1.699452603205077E12	3.1942669384797737	
1.6994526032060535E12	3.2100134940958216	
1.69945260320703E12	3.1594081512381416	
1.6994526032080066E12	3.052547937935345	
1.6994526032089832E12	2.943403873054648	
1.6994526032099597E12	2.927416912009348	
1.6994526032109363E12	2.801925277939472	
1.6994526032119128E12	2.8346204163178306	
1.6994526032128894E12	2.97958489015717	
1.699452603213866E12	3.1125290925338778	
1.6994526032148425E12	3.184410315880416	
1.699452603215819E12	3.179241599151484	
1.6994526032167957E12	3.114933146826404	
1.6994526032177722E12	3.0848824681698246	
1.6994526032187488E12	3.0353589497437814	
1.6994526032197253E12	3.0013415815045335	
1.699452603220702E12	2.994249621341581	
1.6994526032216785E12	2.9646797535435065	
1.699452603222655E12	2.902414747367074	
1.6994526032236316E12	2.8835429211707417	
1.6994526032246082E12	2.86467109497441	
1.6994526032255847E12	2.900611706647679	
1.6994526032265613E12	2.9345088721723007	
1.6994526032275378E12	2.9771808358646434	
1.6994526032285144E12	3.026463948861434	
1.699452603229491E12	3.0821178057334193	
1.6994526032304675E12	3.067332871834382	
1.699452603231444E12	3.0565146275180135	
1.6994526032324207E12	3.066972263690503	
1.6994526032333972E12	3.018530569696097	
1.6994526032343738E12	3.0775501025776193	
1.6994526032353503E12	2.8694792035594627	
1.699452603236327E12	2.7736776400022873	
1.6994526032373035E12	2.722230878142223	
1.69945260323828E12	2.7040802682336493	
1.6994526032392566E12	2.8157485901214985	
1.6994526032402332E12	2.911189545534795	
1.6994526032412097E12	2.9763394168622592	
1.6994526032421863E12	3.117938214692062	
1.6994526032431628E12	3.150152542211915	
1.6994526032441394E12	3.1690243684082473	
1.699452603245116E12	3.285019988022644	
1.6994526032460925E12	3.3312980331537765	
1.699452603247069E12	3.2821351228716122	
1.6994526032480457E12	3.2028013312182426	
1.6994526032490222E12	3.2209519411268164	
1.6994526032499988E12	3.206046804513153	
1.6994526032509753E12	3.179962815439242	
1.699452603251952E12	3.1710678145568947	
1.6994526032529282E12	3.132843351305725	
1.6994526032539048E12	3.046056991345524	
1.6994526032548813E12	2.9704494838455697	
1.699452603255858E12	2.9253734658607007	
1.6994526032568345E12	2.8513285936508885	
1.699452603257811E12	2.781490816452998	
1.6994526032587876E12	2.8595023782454785	
1.6994526032597642E12	2.982229349878949	
1.6994526032607407E12	3.015405299115813	
1.6994526032617173E12	3.0221366511348866	
1.6994526032626938E12	2.9401583997597376	
1.6994526032636704E12	2.908184477669137	
1.699452603264647E12	2.9329462368821586	
1.6994526032656235E12	2.9967738783487334	
1.6994526032666E12	3.040527666472713	
1.6994526032675767E12	3.0217760429910077	
1.6994526032685532E12	2.9706898892748224	
1.6994526032695298E12	3.03932563932645	
1.6994526032705063E12	3.0825986165919246	
1.699452603271483E12	3.0323538818781235	
1.6994526032724595E12	3.271316878555244	
1.699452603273436E12	3.6477917807648716	
1.6994526032744126E12	3.3618295226688613	
1.6994526032753892E12	3.0074719199504756	
1.6994526032763657E12	2.8938803546286054	
1.6994526032773423E12	2.7310056763099446	
1.6994526032783188E12	2.667418440272622	
1.6994526032792954E12	2.6557587769538693	
1.699452603280272E12	2.6543163443783535	
1.6994526032812485E12	2.5930129599189313	
1.699452603282225E12	2.55779356453342	
1.6994526032832017E12	2.765624058122324	
1.6994526032841782E12	2.962516104680233	
1.6994526032851548E12	2.9816283363058176	
1.6994526032861313E12	3.032113476448871	
1.699452603287108E12	3.091133009330393	
1.6994526032880845E12	3.1657788951133363	
1.699452603289061E12	3.2406651863255327	
1.6994526032900376E12	3.255209714795317	
1.6994526032910142E12	3.1984740334916952	
1.6994526032919907E12	3.095219901627688	
1.6994526032929673E12	2.9804263091595544	
1.6994526032939438E12	2.8123829141119616	
1.6994526032949204E12	2.690737766910128	
1.699452603295897E12	2.6951852673513015	
1.6994526032968735E12	2.7371360147558867	
1.69945260329785E12	2.8598629863893574	
1.6994526032988267E12	2.9473705626373166	
1.6994526032998032E12	2.9704494838455697	
1.6994526033007798E12	2.9012127202208107	
1.6994526033017563E12	2.9287391418702375	
1.699452603302733E12	2.9436442784839008	
1.6994526033037095E12	2.972372727279591	
1.699452603304686E12	3.027545773293071	
1.6994526033056626E12	3.0841612518820667	
1.6994526033066392E12	3.1031532807930247	
1.6994526033076157E12	3.146306055343873	
1.6994526033085923E12	3.1997962633525847	
1.6994526033095688E12	3.1683031521204894	
1.6994526033105454E12	3.1544798399384626	
1.699452603311522E12	3.180323423583121	
1.6994526033124985E12	3.2068882235155374	
1.699452603313475E12	3.1134907142508883	
1.6994526033144517E12	3.044975166913887	
1.6994526033154282E12	3.007231514521223	
1.6994526033164048E12	2.9393169807573534	
1.6994526033173813E12	2.9126319781103107	
1.699452603318358E12	2.932705831452906	
1.6994526033193345E12	2.911550153678674	
1.699452603320311E12	2.9156370459759686	
1.6994526033212876E12	2.8814994750220944	
1.6994526033222642E12	2.885466164604763	
1.6994526033232407E12	2.9181613029831217	
1.6994526033242173E12	3.031752868304992	
1.6994526033251938E12	3.148950515065652	
1.6994526033261704E12	3.1946275466236527	
1.699452603327147E12	3.1966709927723	
1.6994526033281235E12	3.1728708552762894	
1.6994526033291E12	3.184049707736537	
1.6994526033300767E12	3.192463897760379	
1.6994526033310532E12	3.175034504139563	
1.6994526033320298E12	3.0610823306738135	
1.6994526033330063E12	2.9593908340999486	
1.699452603333983E12	2.8792156234441943	
1.6994526033349595E12	2.8576993375260837	
1.699452603335936E12	2.8524104180825254	
1.6994526033369126E12	2.8658731221206732	
1.6994526033378892E12	2.9482119816397008	
1.6994526033388657E12	3.025382124429797	
1.6994526033398423E12	2.992807188766065	
1.6994526033408188E12	2.9797050928717965	
1.6994526033417954E12	2.994369824056207	
1.699452603342772E12	2.959511036814575	
1.6994526033437483E12	3.064327803968724	
1.6994526033447249E12	3.5463406896202594	
1.6994526033457014E12	3.297761475773034	
1.699452603346678E12	3.008433541667486	
1.6994526033476545E12	2.834380010888578	
1.699452603348631E12	2.748194664501508	
1.6994526033496077E12	2.741463312482434	
1.6994526033505842E12	2.708888376818702	
1.6994526033515608E12	2.6689810755627645	
1.6994526033525374E12	2.560438024255199	
1.699452603353514E12	2.5181266687067354	
1.6994526033544905E12	2.822720347569825	
1.699452603355467E12	2.9964132702048545	
1.6994526033564436E12	3.071179358702424	
1.6994526033574202E12	3.1276746345767936	
1.6994526033583967E12	3.1739526797079263	
1.6994526033593733E12	3.2606188369535016	
1.6994526033603499E12	3.3109837743819286	
1.6994526033613264E12	3.2960786377682654	
1.699452603362303E12	3.244511673193575	
1.6994526033632795E12	3.2595370125218643	
1.699452603364256E12	3.2217933601292006	
1.6994526033652327E12	3.155802069799352	
1.6994526033662092E12	3.041369085475097	
1.6994526033671858E12	2.7786059513019663	
1.6994526033681624E12	2.596619041357721	
1.699452603369139E12	2.4163149694182438	
1.6994526033701155E12	2.229640153603572	
1.699452603371092E12	2.2801252937466256	
1.6994526033720686E12	2.4290564571686337	
1.6994526033730452E12	2.6275111390166845	
1.6994526033740217E12	2.8681569736985733	
1.6994526033749983E12	2.991364756190549	
1.6994526033759749E12	3.138372676178536	
1.6994526033769514E12	3.2175862651172795	
1.699452603377928E12	3.255570322939196	
1.6994526033789045E12	3.258214782660975	
1.699452603379881E12	3.284659379878765	
1.6994526033808577E12	3.2699946486943543	
1.6994526033818342E12	3.304252422362855	
1.6994526033828108E12	3.246074308483717	
1.6994526033837874E12	3.153157610077573	
1.699452603384764E12	2.941120021476748	
1.6994526033857405E12	2.923570425141306	
1.699452603386717E12	2.932705831452906	
1.6994526033876936E12	2.9574675906659276	
1.6994526033886702E12	3.0186507724107234	
1.6994526033896467E12	3.094138077196051	
1.6994526033906233E12	3.141017135900315	
1.6994526033915999E12	3.179241599151484	
1.6994526033925764E12	3.1543596372238363	
1.699452603393553E12	3.1071199703756935	
1.6994526033945295E12	3.0798339541555193	
1.699452603395506E12	3.1197412554114567	
1.6994526033964827E12	3.170466800983763	
1.6994526033974592E12	3.1823668697317684	
1.6994526033984358E12	3.146666663487752	
1.6994526033994124E12	3.113009903392383	
1.699452603400389E12	3.077790508006872	
1.6994526034013655E12	3.082358211162672	
1.699452603402342E12	3.0493024646404345	
1.6994526034033186E12	2.966723199692154	
1.6994526034042952E12	2.910828937390916	
1.6994526034052717E12	2.837385078754236	
1.6994526034062483E12	2.834860821747083	
1.6994526034072249E12	2.8532518370849096	
1.6994526034082014E12	2.87609035286391	
1.699452603409178E12	2.918281505697748	
1.6994526034101545E12	2.956145360805038	
1.699452603411131E12	3.012039623106276	
1.6994526034121077E12	3.0037456357970598	
1.6994526034130842E12	2.9800657010156755	
1.6994526034140608E12	2.9696080648431855	
1.6994526034150374E12	2.9424422513376376	
1.699452603416014E12	2.86923879813021	
1.6994526034169905E12	2.7885827766159506	
1.699452603417967E12	2.8531316343702833	
1.6994526034189436E12	2.9260946821484586	
1.6994526034199202E12	3.4368360165956835	
1.6994526034208967E12	3.8378322725890803	
1.6994526034218733E12	3.686857663018425	
1.6994526034228499E12	3.508957645371474	
1.6994526034238264E12	3.3511314810671187	
1.699452603424803E12	3.25869559351948	
1.6994526034257795E12	3.1027926726491457	
1.699452603426756E12	2.974416173428238	
1.6994526034277327E12	2.795073723205772	
1.6994526034287092E12	2.601186744513521	
1.6994526034296858E12	2.42689280830536	
1.6994526034306624E12	2.643498100061985	
1.699452603431639E12	2.7745190590046716	
1.6994526034326155E12	2.7007145922241125	
1.699452603433592E12	2.515722614414209	
1.6994526034345684E12	2.3776096953085695	
1.699452603435545E12	2.3790521278840853	
1.6994526034365215E12	2.5237761962941723	
1.699452603437498E12	2.7495168943623973	
1.6994526034384746E12	2.92212799256579	
1.6994526034394512E12	3.018530569696097	
1.6994526034404277E12	3.114452335967899	
1.6994526034414043E12	3.21854788683429	
1.6994526034423809E12	3.241626808042543	
1.6994526034433574E12	3.226481265999627	
1.699452603444334E12	3.237780321174501	
1.6994526034453105E12	3.215422616254006	
1.699452603446287E12	3.2579743772317222	
1.6994526034472637E12	3.1925841004750053	
1.6994526034482402E12	3.125150377569641	
1.6994526034492168E12	2.9631171182533644	
1.6994526034501934E12	2.928138128297106	
1.69945260345117E12	2.960713063960838	
1.6994526034521465E12	3.02562252985905	
1.699452603453123E12	3.0791127378677614	
1.6994526034540996E12	3.1031532807930247	
1.6994526034550762E12	3.0775501025776193	
1.6994526034560527E12	3.0269447597199393	
1.6994526034570293E12	3.0228578674226445	
1.6994526034580059E12	2.9982163109242492	
1.6994526034589824E12	3.029589219441718	
1.699452603459959E12	3.029829624870971	
1.6994526034609355E12	2.994730432200086	
1.699452603461912E12	2.9525392793662486	
1.6994526034628887E12	2.8506073773631306	
1.6994526034638652E12	2.8865479890364	
1.6994526034648418E12	2.8622670406818838	
1.6994526034658184E12	2.6985509433608383	
1.699452603466795E12	2.6338818828918793	
1.6994526034677715E12	2.6420556674864693	
1.699452603468748E12	2.649989046651806	
1.6994526034697246E12	2.7687493287026084	
1.6994526034707012E12	2.834860821747083	
1.6994526034716777E12	2.8985682604990317	
1.6994526034726543E12	2.9518180630784907	
1.6994526034736309E12	3.043051923479866	
1.6994526034746074E12	3.1136109169655146	
1.699452603475584E12	3.177678963861342	
1.6994526034765605E12	3.230087347438417	
1.699452603477537E12	3.2398237673231485	
1.6994526034785137E12	3.181044639870879	
1.6994526034794902E12	3.165298084254831	
1.6994526034804668E12	3.1842901131657895	
1.6994526034814434E12	3.195949776484542	
1.69945260348242E12	3.138973689751668	
1.6994526034833965E12	3.0651692229711083	
1.699452603484373E12	3.0107173932453866	
1.6994526034853496E12	3.0101163796722545	
1.6994526034863262E12	3.007592122665102	
1.6994526034873027E12	2.969367659413933	
1.6994526034882793E12	2.8171910226970143	
1.6994526034892559E12	2.806853589239151	
1.6994526034902324E12	2.8894328541874317	
1.699452603491209E12	2.982109147164323	
1.6994526034921855E12	3.063245979537087	
1.699452603493162E12	3.0572358438057714	
1.6994526034941387E12	3.0829592247358035	
1.6994526034951152E12	3.110726051814483	
1.6994526034960918E12	3.078151116150751	
1.6994526034970684E12	3.054110573225487	
1.699452603498045E12	3.039806450184955	
1.6994526034990215E12	3.027305367863818	
1.699452603499998E12	3.0051880683725756	
1.6994526035009746E12	2.972132321850338	
1.6994526035019512E12	3.0400468556142077	
1.6994526035029277E12	3.065409628400361	
1.6994526035039043E12	3.051466113503708	
1.6994526035048809E12	3.056394424803387	
1.6994526035058574E12	3.0466580049186556	
1.699452603506834E12	3.074064223853456	
1.6994526035078105E12	3.4405623007490993	
1.699452603508787E12	3.796482538757627	
1.6994526035097637E12	3.6408200233165453	
1.6994526035107402E12	3.4197672311187466	
1.6994526035117168E12	3.1737122742786736	
1.6994526035126934E12	2.9914849589051755	
1.69945260351367E12	2.9176804921246164	
1.6994526035146465E12	2.796636358495914	
1.699452603515623E12	2.6747508058648277	
1.6994526035165996E12	2.535075251469046	
1.6994526035175762E12	2.6222222195731266	
1.6994526035185527E12	2.917920897553869	
1.6994526035195293E12	2.960713063960838	
1.6994526035205059E12	2.8326971728838095	
1.6994526035214824E12	2.612846407832274	
1.699452603522459E12	2.5162034252727143	
1.6994526035234355E12	2.6463829652130166	
1.699452603524412E12	2.892197516623837	
1.6994526035253887E12	3.022737664708018	
1.699452603526365E12	3.050264086357445	
1.6994526035273416E12	3.0863249007453404	
1.699452603528318E12	3.1786405855783526	
1.6994526035292947E12	3.1808042344416263	
1.6994526035302712E12	3.0961815233446983	
1.6994526035312478E12	2.9888404991833966	
1.6994526035322244E12	2.9413604269060007	
1.699452603533201E12	2.8379860923273674	
1.6994526035341775E12	2.762138179398161	
1.699452603535154E12	2.802285886083351	
1.6994526035361306E12	2.8668347438376838	
1.6994526035371072E12	2.828009267013383	
1.6994526035380837E12	2.825725415435483	
1.6994526035390603E12	2.92212799256579	
1.6994526035400369E12	2.9974950946364913	
1.6994526035410134E12	3.082718819306551	
1.69945260354199E12	3.1552010562262205	
1.6994526035429666E12	3.220350927553685	
1.699452603543943E12	3.2606188369535016	
1.6994526035449197E12	3.1907810597556105	
1.6994526035458962E12	3.0523075325060924	
1.6994526035468728E12	2.9910041480466703	
1.6994526035478494E12	2.901332922935437	
1.699452603548826E12	2.7729564237145294	
1.6994526035498025E12	2.734611757748734	
1.699452603550779E12	2.809858657104809	
1.6994526035517556E12	2.897847044211274	
1.6994526035527322E12	2.9331866423114112	
1.6994526035537087E12	2.9831909715959597	
1.6994526035546853E12	3.0269447597199393	
1.6994526035556619E12	3.032954895451255	
1.6994526035566384E12	3.1253907829988936	
1.699452603557615E12	3.14510402819761	
1.6994526035585916E12	3.189458829894721	
1.699452603559568E12	3.0670924664051293	
1.6994526035605447E12	3.0062698928042124	
1.6994526035615212E12	2.969007051270054	
1.6994526035624978E12	2.9340280613137955	
1.6994526035634744E12	2.9491736033567117	
1.699452603564451E12	2.9449665083447902	
1.6994526035654275E12	2.9541019146563907	
1.699452603566404E12	2.957948401524433	
1.6994526035673806E12	2.9662423888336487	
1.6994526035683572E12	3.00831333895286	
1.6994526035693337E12	3.0875269278916035	
1.6994526035703103E12	3.1487101096363994	
1.6994526035712869E12	3.161932408245294	
1.6994526035722634E12	3.2496803899225064	
1.69945260357324E12	3.3504102647793608	
1.6994526035742166E12	3.3442799263334186	
1.699452603575193E12	3.234775253308843	
1.6994526035761697E12	3.138372676178536	
1.6994526035771462E12	3.0887289550378667	
1.6994526035781228E12	3.3386303987459818	
1.6994526035790994E12	3.637213941877756	
1.699452603580076E12	3.4020974320686777	
1.6994526035810525E12	3.1969113982015527	
1.699452603582029E12	3.071539966846303	
1.6994526035830056E12	3.031752868304992	
1.6994526035839822E12	3.0029042167946756	
1.6994526035849587E12	2.9065016396643686	
1.6994526035859353E12	2.7661048689808294	
1.6994526035869119E12	2.695425672780554	
1.6994526035878884E12	2.5163236279873407	
1.699452603588865E12	2.6153706648394266	
1.6994526035898416E12	2.77620189700944	
1.699452603590818E12	2.8403901466198938	
1.6994526035917947E12	2.9578281988098065	
1.6994526035927712E12	3.0074719199504756	
1.6994526035937478E12	3.057476249235024	
1.6994526035947244E12	3.0716601695609294	
1.699452603595701E12	3.0002597570728966	
1.6994526035966775E12	2.9678050241237908	
1.699452603597654E12	2.9468897517788113	
1.6994526035986306E12	2.9042177880864686	
1.6994526035996072E12	2.6998731732217283	
1.6994526036005837E12	2.516804438845846	
1.6994526036015603E12	2.6534749253759693	
1.6994526036025369E12	2.731606689883076	
1.6994526036035134E12	2.8403901466198938	
1.69945260360449E12	2.962996915538738	
1.6994526036054666E12	3.026824557005313	
1.699452603606443E12	3.0428115180506135	
1.6994526036074197E12	3.045696383201645	
1.6994526036083962E12	2.87380650128601	
1.6994526036093728E12	2.7335299333170973	
1.6994526036103494E12	2.5600774161113202	
1.699452603611326E12	2.419680645427781	
1.6994526036123025E12	2.496490180073998	
1.699452603613279E12	2.584478567180463	
1.6994526036142556E12	2.7925494661986194	
1.6994526036152322E12	3.001101176075281	
1.6994526036162087E12	3.126232202001278	
1.699452603617185E12	3.2216731574145743	
1.6994526036181616E12	3.2882654613175544	
1.6994526036191382E12	3.34259708832865	
1.6994526036201147E12	3.3097817472356654	
1.6994526036210913E12	3.3132676259598286	
1.6994526036220679E12	3.3748114158485034	
1.6994526036230444E12	3.364353779676014	
1.699452603624021E12	3.2803320821522175	
1.6994526036249976E12	3.2210721438414427	
1.699452603625974E12	3.1536384209360784	
1.6994526036269507E12	3.1249099721403883	
1.6994526036279272E12	3.0392054366118235	
1.6994526036289038E12	2.8218789285674406	
1.6994526036298804E12	2.7790867621604716	
1.699452603630857E12	2.818272847128651	
1.6994526036318335E12	2.9116703563933	
1.69945260363281E12	3.0228578674226445	
1.6994526036337866E12	3.0791127378677614	
1.6994526036347632E12	3.114452335967899	
1.6994526036357397E12	3.1115674708168672	
1.6994526036367163E12	3.1544798399384626	
1.6994526036376929E12	3.205565993654648	
1.6994526036386694E12	3.1710678145568947	
1.699452603639646E12	3.114812944111778	
1.6994526036406226E12	3.1338049730227358	
1.699452603641599E12	3.184891126738921	
1.6994526036425757E12	3.193185114048137	
1.6994526036435522E12	3.1571242996602416	
1.6994526036445288E12	3.153878826365331	
1.6994526036455054E12	3.0235790837104024	
1.699452603646482E12	2.9068622478082475	
1.6994526036474585E12	2.8322163620253042	
1.699452603648435E12	2.7901454119060927	
1.6994526036494116E12	2.7507189215086605	
1.6994526036503882E12	2.770432166707377	
1.6994526036513647E12	2.8096182516755563	
1.6994526036523413E12	2.844356836202562	
1.6994526036533179E12	2.880177245161205	
1.6994526036542944E12	2.9518180630784907	
1.699452603655271E12	3.022617461993392	
1.6994526036562476E12	3.088127941464735	
1.699452603657224E12	3.1241887558526305	
1.6994526036582007E12	3.1066391595171883	
1.6994526036591772E12	3.1139715251093936	
1.6994526036601538E12	3.168904165693621	
1.6994526036611304E12	3.181405248014758	
1.699452603662107E12	3.1280352427206726	
1.6994526036630835E12	3.061563141532319	
1.69945260366406E12	2.9990577299266334	
1.6994526036650366E12	2.8781337990125575	
1.6994526036660132E12	3.0841612518820667	
1.6994526036669897E12	3.347525399628329	
1.6994526036679663E12	3.1655384896840837	
1.6994526036689429E12	3.0996674020688615	
1.6994526036699194E12	3.082718819306551	
1.699452603670896E12	3.054831789513245	
1.6994526036718726E12	3.0721409804194346	
1.699452603672849E12	3.04978327549894	
1.6994526036738257E12	2.9222481952804165	
1.6994526036748022E12	2.765143247263819	
1.6994526036757788E12	2.5502207935119623	
1.6994526036767554E12	2.634122288321132	
1.699452603677732E12	2.7635806119736768	
1.6994526036787085E12	2.8195950769895406	
1.699452603679685E12	2.853732647943415	
1.6994526036806616E12	2.9566261716635434	
1.6994526036816382E12	3.2298469420091642	
1.6994526036826147E12	3.2792502577205807	
1.6994526036835913E12	3.1740728824225526	
1.6994526036845679E12	2.854694269660426	
1.6994526036855444E12	2.7438673667749605	
1.699452603686521E12	2.760335138678766	
1.6994526036874976E12	2.847722512212099	
1.699452603688474E12	2.9121511672518055	
1.6994526036894507E12	2.9010925175061844	
1.6994526036904272E12	2.7564886518107237	
1.6994526036914038E12	2.8633488651135206	
1.6994526036923804E12	3.067332871834382	
1.699452603693357E12	3.1875355864607	
1.6994526036943335E12	3.259056201663359	
1.69945260369531E12	3.2330924153040748	
1.6994526036962866E12	3.063967195824845	
1.6994526036972632E12	2.8989288686429107	
1.6994526036982397E12	2.8157485901214985	
1.6994526036992163E12	2.798800007359188	
1.6994526037001929E12	2.791467641766982	
1.6994526037011694E12	2.7431461504872026	
1.699452603702146E12	2.750959326937913	
1.6994526037031226E12	2.839789133046762	
1.699452603704099E12	2.9321048178797744	
1.6994526037050757E12	2.9930475941953176	
1.6994526037060522E12	3.063606587680966	
1.6994526037070288E12	3.1092836192389672	
1.6994526037080051E12	3.1321221350179673	
1.6994526037089817E12	3.175034504139563	
1.6994526037099583E12	3.260138026094996	
1.6994526037109348E12	3.230568158296922	
1.6994526037119114E12	3.1372908517468994	
1.699452603712888E12	2.9816283363058176	
1.6994526037138645E12	2.9521786712223697	
1.699452603714841E12	2.95314029293938	
1.6994526037158176E12	2.944846305630164	
1.6994526037167942E12	2.987878877466386	
1.6994526037177708E12	3.0644480066833504	
1.6994526037187473E12	3.11865943097982	
1.6994526037197239E12	3.1502727449265415	
1.6994526037207004E12	3.1128897006777567	
1.699452603721677E12	3.0913734147596457	
1.6994526037226536E12	3.137170649032273	
1.6994526037236301E12	3.196190181913795	
1.6994526037246067E12	3.1562828806578573	
1.6994526037255833E12	3.0315124628757393	
1.6994526037265598E12	2.957948401524433	
1.6994526037275364E12	2.926936101150843	
1.699452603728513E12	2.832817375598436	
1.6994526037294895E12	2.846881093209715	
1.699452603730466E12	2.817792036270146	
1.6994526037314426E12	2.910828937390916	
1.6994526037324192E12	3.0006203652167756	
1.6994526037333958E12	3.0955805097715667	
1.6994526037343723E12	3.1423393657612047	
1.6994526037353489E12	3.1583263268065047	
1.6994526037363254E12	3.141377744044194	
1.699452603737302E12	3.0731026021364456	
1.6994526037382786E12	2.9830707688813334	
1.6994526037392551E12	2.9657615779751434	
1.6994526037402317E12	2.950375630502975	
1.6994526037412083E12	2.9550635363734012	
1.6994526037421848E12	2.9929273914806913	
1.6994526037431614E12	2.8942409627724843	
1.699452603744138E12	3.3034110033604707	
1.6994526037451145E12	3.525064809131401	
1.699452603746091E12	3.3691618882610666	
1.6994526037470676E12	3.220471130268311	
1.6994526037480442E12	3.078271318865377	
1.6994526037490208E12	2.976219214147633	
1.6994526037499973E12	2.944485697486285	
1.6994526037509739E12	2.8795762315880733	
1.6994526037519504E12	2.7106914175380967	
1.699452603752927E12	2.5950564060675787	
1.6994526037539036E12	2.566808768130394	
1.6994526037548801E12	2.839789133046762	
1.6994526037558567E12	3.06805408812214	
1.6994526037568333E12	3.0889693604671193	
1.6994526037578098E12	3.156883894230989	
1.6994526037587864E12	3.1609707865282837	
1.699452603759763E12	3.023098272851897	
1.6994526037607395E12	2.7003539840802335	
1.699452603761716E12	2.603470596091421	
1.6994526037626926E12	2.6439789109204903	
1.6994526037636692E12	2.704320673662902	
1.6994526037646458E12	2.873445893142131	
1.6994526037656223E12	3.002663811365423	
1.6994526037665989E12	3.0700975342707872	
1.6994526037675754E12	3.1243089585672568	
1.699452603768552E12	3.1520757856459363	
1.6994526037695286E12	3.184891126738921	
1.6994526037705051E12	3.209773088666569	
1.6994526037714817E12	3.2636239048191595	
1.6994526037724583E12	3.306175665796876	
1.6994526037734348E12	3.2796108658644596	
1.6994526037744114E12	3.277086608857307	
1.699452603775388E12	3.341034453038508	
1.6994526037763645E12	3.31386863953296	
1.699452603777341E12	3.2348954560234695	
1.6994526037783176E12	3.1608505838136574	
1.6994526037792942E12	3.1537586236507047	
1.6994526037802708E12	3.1684233548351157	
1.6994526037812473E12	3.136088824600636	
1.6994526037822239E12	3.0640873985394714	
1.6994526037832004E12	2.9609534693900907	
1.699452603784177E12	2.9352300884600586	
1.6994526037851536E12	2.939917994330485	
1.6994526037861301E12	2.9340280613137955	
1.6994526037871067E12	2.9883596883248913	
1.6994526037880833E12	3.035238747029155	
1.6994526037890598E12	3.164456665252447	
1.6994526037900364E12	3.1957093710552895	
1.699452603791013E12	3.1271938237182884	
1.6994526037919895E12	2.9482119816397008	
1.699452603792966E12	2.776923113297198	
1.6994526037939426E12	2.6002251227965103	
1.6994526037949192E12	2.6150100566955476	
1.6994526037958958E12	2.7026378356581335	
1.6994526037968723E12	2.7396602717630394	
1.6994526037978489E12	2.8080556163854142	
1.6994526037988252E12	2.874888325717647	
1.6994526037998018E12	2.984513201456849	
1.6994526038007783E12	3.059279289954419	
1.699452603801755E12	3.0985855776372246	
1.6994526038027314E12	3.066611655546624	
1.699452603803708E12	3.040167058328834	
1.6994526038046846E12	2.890995489477574	
1.6994526038056611E12	2.5636834975501097	
1.6994526038066377E12	2.170139809863545	
1.6994526038076143E12	2.0719341920138428	
1.6994526038085908E12	2.1254244000225544	
1.6994526038095674E12	2.385062263615401	
1.699452603810544E12	2.527502480447588	
1.6994526038115205E12	3.334904114592566	
1.699452603812497E12	3.567015556535986	
1.6994526038134736E12	3.54501845975937	
1.6994526038144502E12	3.51857386254158	
1.6994526038154268E12	3.4618381812379577	
1.6994526038164033E12	3.4242147315599203	
1.69945260381738E12	3.307738301087018	
1.6994526038183564E12	3.1354878110275046	
1.699452603819333E12	2.9373937373233323	
1.6994526038203096E12	2.80036264264933	
1.6994526038212861E12	2.800002034505451	
1.6994526038222627E12	3.0489418564965556	
1.6994526038232393E12	3.2447520786228274	
1.6994526038242158E12	3.2247984279948585	
1.6994526038251924E12	3.2017195067866058	
1.699452603826169E12	3.20941248052269	
1.6994526038271455E12	3.2766057979988017	
1.699452603828122E12	3.277807825145065	
1.6994526038290986E12	3.2084508588056795	
1.6994526038300752E12	3.139093892466294	
1.6994526038310518E12	3.112649295248504	
1.6994526038320283E12	3.0698571288415346	
1.699452603833005E12	3.0651692229711083	
1.6994526038339814E12	3.0741844265680824	
1.699452603834958E12	3.104595713368541	
1.6994526038359346E12	3.111086659958362	
1.6994526038369111E12	3.143541392907468	
1.6994526038378877E12	3.1733516661347947	
1.6994526038388643E12	3.1667405168303473	
1.6994526038398408E12	3.152676799219068	
1.6994526038408174E12	3.1457050417707415	
1.699452603841794E12	3.107600781234199	
1.6994526038427705E12	3.051706518932961	
1.699452603843747E12	3.0305508411587287	
1.6994526038447236E12	2.9982163109242492	
1.6994526038457002E12	2.971290902847954	
1.6994526038466768E12	3.0577166546642767	
1.6994526038476533E12	3.0117992176770234	
1.69945260384863E12	2.9068622478082475	
1.6994526038496064E12	2.760335138678766	
1.699452603850583E12	2.781490816452998	
1.6994526038515596E12	2.815508184692246	
1.6994526038525361E12	2.863108459684268	
1.6994526038535127E12	2.9567463743781697	
1.6994526038544893E12	3.0055486765164545	
1.6994526038554658E12	2.9991779326412598	
1.6994526038564424E12	3.0037456357970598	
1.699452603857419E12	3.0822380084480456	
1.6994526038583955E12	3.1106058490998567	
1.699452603859372E12	2.911910761822553	
1.6994526038603486E12	2.7231924998592336	
1.6994526038613252E12	2.575463363583489	
1.6994526038623018E12	2.515001398126451	
1.6994526038632783E12	2.4818254488895874	
1.699452603864255E12	2.5563511319579044	
1.6994526038652314E12	2.699752970507102	
1.699452603866208E12	2.8579397429553364	
1.6994526038671846E12	3.0029042167946756	
1.6994526038681611E12	3.12322713413562	
1.6994526038691377E12	3.218067075975785	
1.6994526038701143E12	3.285861407025028	
1.6994526038710908E12	3.3675992529709244	
1.6994526038720674E12	3.4039004727880724	
1.699452603873044E12	3.3691618882610666	
1.6994526038740205E12	3.181765856158637	
1.699452603874997E12	3.164216259823194	
1.6994526038759736E12	3.0825986165919246	
1.6994526038769502E12	3.115654363114162	
1.6994526038779268E12	3.064688412112603	
1.6994526038789033E12	3.029589219441718	
1.69945260387988E12	3.0783915215800035	
1.6994526038808564E12	3.0798339541555193	
1.699452603881833E12	3.085723887172209	
1.6994526038828096E12	3.0906521984718878	
1.6994526038837861E12	3.084642062740572	
1.6994526038847627E12	3.0970229423470825	
1.6994526038857393E12	3.071539966846303	
1.6994526038867158E12	2.9876384720371334	
1.6994526038876924E12	2.897125827923516	
1.699452603888669E12	2.8584205538138416	
1.6994526038896453E12	2.8913560976214527	
1.6994526038906218E12	2.930421979875006	
1.6994526038915984E12	2.972132321850338	
1.699452603892575E12	2.996172864775602	
1.6994526038935515E12	3.043051923479866	
1.699452603894528E12	3.092335036476656	
1.6994526038955046E12	3.1003886183566194	
1.6994526038964812E12	3.1127694979631304	
1.6994526038974578E12	3.050264086357445	
1.6994526038984343E12	2.9462887382056797	
1.699452603899411E12	3.032113476448871	
1.6994526039003875E12	3.6776020539921985	
1.699452603901364E12	3.772321793117737	
1.6994526039023406E12	3.583964139298297	
1.6994526039033171E12	3.404140878217325	
1.6994526039042937E12	3.097984564064093	
1.6994526039052703E12	2.792789871627872	
1.6994526039062468E12	2.6065958666717055	
1.6994526039072234E12	2.4773779484484133	
1.6994526039082E12	2.3246002981583636	
1.6994526039091765E12	2.1772317700264976	
1.699452603910153E12	2.2822889426098993	
1.6994526039111296E12	2.577266404302884	
1.6994526039121062E12	2.6233040440047635	
1.6994526039130828E12	2.795073723205772	
1.6994526039140593E12	2.908184477669137	
1.699452603915036E12	2.9669636051214066	
1.6994526039160125E12	3.0126406366794076	
1.699452603916989E12	3.037161990463176	
1.6994526039179656E12	3.048701451067303	
1.6994526039189421E12	3.0652894256857346	
1.6994526039199187E12	3.0648086148272293	
1.6994526039208953E12	2.9331866423114112	
1.6994526039218718E12	2.8655125139767943	
1.6994526039228484E12	2.816710211838509	
1.699452603923825E12	2.8649115004036627	
1.6994526039248015E12	3.0174487452644603	
1.699452603925778E12	3.067332871834382	
1.6994526039267546E12	3.1234675395648726	
1.6994526039277312E12	3.1811648425855052	
1.6994526039287078E12	3.205565993654648	
1.6994526039296843E12	3.241145997184038	
1.699452603930661E12	3.3131474232452023	
1.6994526039316375E12	3.3332212765877975	
1.699452603932614E12	3.29788167848766	
1.6994526039335906E12	3.1627738272476784	
1.6994526039345671E12	3.1291170671523094	
1.6994526039355437E12	3.1483495014925205	
1.6994526039365203E12	3.1388534870370415	
1.6994526039374968E12	3.0916138201888983	
1.6994526039384734E12	3.014323474684176	
1.69945260393945E12	2.8781337990125575	
1.6994526039404265E12	2.799641426361572	
1.699452603941403E12	2.8568579185236995	
1.6994526039423796E12	2.923570425141306	
1.6994526039433562E12	2.9753777951452487	
1.6994526039443328E12	3.0168477316913287	
1.6994526039453093E12	3.086565306174593	
1.699452603946286E12	3.136449432744515	
1.6994526039472625E12	3.1627738272476784	
1.699452603948239E12	3.1870547756021947	
1.6994526039492156E12	3.2096528859519426	
1.6994526039501921E12	3.2410257944694116	
1.6994526039511687E12	3.2519642415004064	
1.6994526039521453E12	3.2005174796403426	
1.6994526039531218E12	3.171909233559279	
1.6994526039540984E12	3.1499121367826626	
1.699452603955075E12	3.068895507124524	
1.6994526039560515E12	2.974416173428238	
1.699452603957028E12	2.970930294704075	
1.6994526039580046E12	2.9937688104830755	
1.6994526039589812E12	3.00831333895286	
1.6994526039599578E12	3.0270649624345656	
1.6994526039609343E12	3.0693763179830293	
1.699452603961911E12	3.090772401186514	
1.6994526039628875E12	3.094859293483809	
1.699452603963864E12	3.0887289550378667	
1.6994526039648406E12	3.1207028771284673	
1.6994526039658171E12	3.1314009187302094	
1.6994526039667937E12	3.112168484389999	
1.6994526039677703E12	3.179602207295363	
1.6994526039687468E12	3.1475080824901362	
1.6994526039697234E12	3.0465378022040293	
1.6994526039707E12	2.996293067490228	
1.6994526039716765E12	2.9264552902923375	
1.699452603972653E12	2.9222481952804165	
1.6994526039736296E12	2.912030964537179	
1.6994526039746062E12	2.8727246768543733	
1.6994526039755828E12	2.7967565612105405	
1.6994526039765593E12	2.7703119639927505	
1.699452603977536E12	2.75204115136955	
1.6994526039785125E12	2.8633488651135206	
1.699452603979489E12	2.9532604956540065	
1.6994526039804653E12	2.9995385407851387	
1.699452603981442E12	3.0235790837104024	
1.6994526039824185E12	3.0910128066157667	
1.699452603983395E12	3.1770779502882105	
1.6994526039843716E12	3.2156630216832585	
1.6994526039853481E12	3.056755032947266	
1.6994526039863247E12	2.8210375095650564	
1.6994526039873013E12	2.623905057577895	
1.6994526039882778E12	2.55779356453342	
1.6994526039892544E12	2.875970150149284	
1.699452603990231E12	3.4918888598945372	
1.6994526039912075E12	3.5408113647474484	
1.699452603992184E12	3.4704927766910525	
1.6994526039931606E12	3.3970489180543724	
1.6994526039941372E12	3.3363465471680818	
1.6994526039951138E12	3.2326116044455695	
1.6994526039960903E12	3.1299584861546936	
1.699452603997067E12	3.0297094221563445	
1.6994526039980435E12	2.8853459618901365	
1.69945260399902E12	2.7374966228997657	
1.6994526039999966E12	2.8076950082415353	
1.6994526040009731E12	3.0067507036627177	
1.6994526040019497E12	3.0746652374265877	
1.6994526040029263E12	3.119380647267578	
1.6994526040039028E12	3.14053632504181	
1.6994526040048794E12	3.118779633694446	
1.699452604005856E12	3.0477398293502924	
1.6994526040068325E12	2.9673242132652855	
1.699452604007809E12	2.8871490026095317	
1.6994526040087856E12	2.8210375095650564	
1.6994526040097622E12	2.834019402744699	
1.6994526040107388E12	2.859021567386973	
1.6994526040117153E12	2.906621842378995	
1.699452604012692E12	2.962876712824112	
1.6994526040136685E12	3.0328346927366288	
1.699452604014645E12	3.0584378709520346	
1.6994526040156216E12	3.1043553079392883	
1.6994526040165981E12	3.1104856463852304	
1.6994526040175747E12	3.094138077196051	
1.6994526040185513E12	2.922007789851164	
1.6994526040195278E12	2.8274082534402516	
1.6994526040205044E12	2.615971678412558	
1.699452604021481E12	2.5457732930707886	
1.6994526040224575E12	2.7949535204911458	
1.699452604023434E12	3.0182901642668445	
1.6994526040244106E12	3.1333241621642305	
1.6994526040253872E12	3.1875355864607	
1.6994526040263638E12	3.181405248014758	
1.6994526040273403E12	3.1639758543939416	
1.699452604028317E12	3.135007000168999	
1.6994526040292935E12	3.153878826365331	
1.69945260403027E12	3.075867264572851	
1.6994526040312466E12	2.866113527549926	
1.6994526040322231E12	2.7975979802129247	
1.6994526040331997E12	2.784495884318656	
1.6994526040341763E12	2.7695907477049926	
1.6994526040351528E12	2.7752402752924294	
1.6994526040361294E12	2.7317268925977025	
1.699452604037106E12	2.7503583133647815	
1.6994526040380825E12	2.8609448108209943	
1.699452604039059E12	3.032113476448871	
1.6994526040400356E12	3.152797001933694	
1.6994526040410122E12	3.224197414421727	
1.6994526040419888E12	3.2035225475060005	
1.6994526040429653E12	3.083560238308935	
1.699452604043942E12	3.0526681406499714	
1.6994526040449185E12	2.988600093754144	
1.699452604045895E12	2.965160564402012	
1.6994526040468716E12	2.9431634676253955	
1.6994526040478481E12	2.937634142752585	
1.6994526040488247E12	3.0039860412263124	
1.6994526040498013E12	3.0698571288415346	
1.6994526040507778E12	3.087767333320856	
1.6994526040517544E12	3.1178180119774357	
1.699452604052731E12	3.1402959196125573	
1.6994526040537075E12	3.1709476118422684	
1.699452604054684E12	3.181044639870879	
1.6994526040556606E12	3.2153024135393795	
1.6994526040566372E12	3.2336934288772063	
1.6994526040576138E12	3.213258967390732	
1.6994526040585903E12	3.237660118459875	
1.699452604059567E12	3.2535268767905485	
1.6994526040605435E12	3.250281403495638	
1.69945260406152E12	3.142459568475831	
1.6994526040624966E12	3.0438933424822503	
1.6994526040634731E12	3.0602409116714293	
1.6994526040644497E12	3.178760788292979	
1.6994526040654263E12	3.183689099592658	
1.6994526040664028E12	3.1441424064805994	
1.6994526040673794E12	3.049062059211182	
1.699452604068356E12	2.948452387068954	
1.6994526040693325E12	2.86923879813021	
1.699452604070309E12	2.7963959530666616	
1.6994526040712854E12	2.7389390554752815	
1.699452604072262E12	2.6320788421724846	
1.6994526040732385E12	2.576184579871247	
1.699452604074215E12	2.6734285760039382	
1.6994526040751917E12	2.741463312482434	
1.6994526040761682E12	2.8525306207971517	
1.6994526040771448E12	2.9299411690165007	
1.6994526040781213E12	2.9978557027803703	
1.699452604079098E12	3.0841612518820667	
1.6994526040800745E12	3.1422191630465783	
1.699452604081051E12	3.2572531609439643	
1.6994526040820276E12	3.451741153209347	
1.6994526040830042E12	3.4468128419096677	
1.6994526040839807E12	3.389355944318288	
1.6994526040849573E12	3.336106141738829	
1.6994526040859338E12	3.251002619783396	
1.6994526040869104E12	3.105797740514804	
1.699452604087887E12	2.9711707001333276	
1.6994526040888635E12	2.860824608106368	
1.69945260408984E12	2.8827015021683575	
1.6994526040908167E12	3.51400615938578	
1.6994526040917932E12	3.5614862316631752	
1.6994526040927698E12	3.4196470284041203	
1.6994526040937463E12	3.3180757345448813	
1.699452604094723E12	3.120582674413841	
1.6994526040956995E12	3.0001395543582703	
1.699452604096676E12	2.777403924155703	
1.6994526040976526E12	2.6933822266319067	
1.6994526040986292E12	2.6523931009443324	
1.6994526040996057E12	2.454900040813292	
1.6994526041005823E12	2.27183130643741	
1.6994526041015588E12	2.5279832913060933	
1.6994526041025354E12	2.7610563549665237	
1.699452604103512E12	2.972853538138096	
1.6994526041044885E12	3.0871663197477246	
1.699452604105465E12	3.10135024007363	
1.6994526041064417E12	3.1223857151332357	
1.6994526041074182E12	3.086204698030714	
1.6994526041083948E12	3.0505044917866977	
1.6994526041093713E12	2.9305421825896323	
1.699452604110348E12	2.491561868774319	
1.6994526041113245E12	2.237934140912788	
1.699452604112301E12	2.266542386993852	
1.6994526041132776E12	2.518367074135988	
1.6994526041142542E12	2.80264649422723	
1.6994526041152307E12	3.023458880995776	
1.6994526041162073E12	3.106158348658683	
1.6994526041171838E12	3.2001568714964637	
1.6994526041181604E12	3.2788896495767017	
1.699452604119137E12	3.333341479302424	
1.6994526041201135E12	3.343318304616408	
1.69945260412109E12	3.325047491993208	
1.6994526041220667E12	3.3525739136426345	
1.6994526041230432E12	3.315671680252355	
1.6994526041240198E12	3.2856210015957754	
1.6994526041249963E12	3.2792502577205807	
1.699452604125973E12	3.277807825145065	
1.6994526041269495E12	3.256772350085459	
1.699452604127926E12	3.2141003863931163	
1.6994526041289026E12	3.1929447086188842	
1.6994526041298792E12	3.1446232173391047	
1.6994526041308557E12	3.0656500338296135	
1.6994526041318323E12	2.9745363761428645	
1.6994526041328088E12	2.911910761822553	
1.6994526041337854E12	2.9117905591079265	
1.699452604134762E12	2.9370331291794534	
1.6994526041357385E12	2.983311174310586	
1.699452604136715E12	3.0149244882573076	
1.6994526041376917E12	3.066611655546624	
1.6994526041386682E12	3.0682944935513925	
1.6994526041396448E12	3.048340842923424	
1.6994526041406213E12	3.257132958229338	
1.699452604141598E12	3.29788167848766	
1.6994526041425745E12	3.2053255882253953	
1.699452604143551E12	3.152316191075189	
1.6994526041445276E12	3.1351272028836252	
1.6994526041455042E12	3.094138077196051	
1.6994526041464807E12	3.085844089886835	
1.6994526041474573E12	3.0910128066157667	
1.6994526041484338E12	3.0560338166595082	
1.6994526041494104E12	3.0081931362382335	
1.699452604150387E12	3.0005001625021492	
1.6994526041513635E12	2.9974950946364913	
1.69945260415234E12	2.9657615779751434	
1.6994526041533167E12	2.919483532844011	
1.6994526041542932E12	2.8478427149267254	
1.6994526041552698E12	2.8239223747160884	
1.6994526041562463E12	2.826446631723241	
1.699452604157223E12	2.8647912976890364	
1.6994526041581995E12	2.945567521917922	
1.699452604159176E12	2.984392998742223	
1.6994526041601526E12	3.008433541667486	
1.6994526041611292E12	3.0454559777723924	
1.6994526041621055E12	3.097503753205588	
1.699452604163082E12	3.16109098924291	
1.6994526041640586E12	3.170466800983763	
1.6994526041650352E12	3.1672213276888526	
1.6994526041660117E12	3.1684233548351157	
1.6994526041669883E12	3.1261119992866515	
1.6994526041679648E12	3.148469704207147	
1.6994526041689414E12	3.1199816608407094	
1.699452604169918E12	3.128155445435299	
1.6994526041708945E12	3.0896905767548772	
1.699452604171871E12	2.936071507462443	
1.6994526041728477E12	2.7998818317908247	
1.6994526041738242E12	2.7181439858449283	
1.6994526041748008E12	2.626549517299674	
1.6994526041757773E12	2.5330318053203986	
1.699452604176754E12	2.5166842361312196	
1.6994526041777305E12	2.5169246415604722	
1.699452604178707E12	2.618976746278216	
1.6994526041796836E12	2.7848564924625347	
1.6994526041806602E12	2.946769549064185	
1.6994526041816367E12	3.0304306384441024	
1.6994526041826133E12	3.096061320630072	
1.6994526041835898E12	3.4208490555503834	
1.6994526041845664E12	3.9168054560985714	
1.699452604185543E12	3.691425366174225	
1.6994526041865195E12	3.5049909557888057	
1.699452604187496E12	3.324206072990824	
1.6994526041884727E12	3.237419713030622	
1.6994526041894492E12	3.251122822498022	
1.6994526041904258E12	3.13825247346391	
1.6994526041914023E12	3.008794149811365	
1.699452604192379E12	2.80949804896093	
1.6994526041933555E12	2.6566001959562535	
1.699452604194332E12	2.80036264264933	
1.6994526041953086E12	2.971771713706459	
1.6994526041962852E12	3.05435097865474	
1.6994526041972617E12	3.0553126003717503	
1.6994526041982383E12	2.998576919068128	
1.6994526041992148E12	3.08993098218413	
1.6994526042001914E12	3.16109098924291	
1.699452604201168E12	3.181405248014758	
1.6994526042021445E12	3.1846507213096684	
1.699452604203121E12	3.117096795689678	
1.6994526042040977E12	3.0573560465203977	
1.6994526042050742E12	3.028747800439334	
1.6994526042060508E12	3.0217760429910077	
1.6994526042070273E12	2.992446580622186	
1.699452604208004E12	2.9382351563257165	
1.6994526042089805E12	2.9257340740045796	
1.699452604209957E12	2.941120021476748	
1.6994526042109336E12	2.9014531256500633	
1.6994526042119102E12	2.8774125827247996	
1.6994526042128867E12	2.9052996125181054	
1.6994526042138633E12	3.0752662509997193	
1.6994526042148398E12	3.0429317207652398	
1.6994526042158164E12	2.9839121878837176	
1.699452604216793E12	3.005428473801828	
1.6994526042177695E12	3.0357195578876603	
1.699452604218746E12	3.03019023301485	
1.6994526042197227E12	2.9953314457732176	
1.6994526042206992E12	2.9509766440761065	
1.6994526042216758E12	2.9727333354234697	
1.6994526042226523E12	2.9741757679989855	
1.699452604223629E12	2.95085644136148	
1.6994526042246055E12	3.0059092846603335	
1.699452604225582E12	3.0919744283327772	
1.6994526042265586E12	3.1604899756697784	
1.6994526042275352E12	3.1854921403120526	
1.6994526042285117E12	3.2012386959281005	
1.6994526042294883E12	3.219749913980553	
1.6994526042304648E12	3.1996760606379584	
1.6994526042314414E12	3.05435097865474	
1.699452604232418E12	2.868397379127826	
1.6994526042333945E12	2.7618977739689083	
1.699452604234371E12	2.7355733794657446	
1.6994526042353477E12	2.7281208111589126	
1.6994526042363242E12	2.771994801997519	
1.6994526042373008E12	2.7998818317908247	
1.6994526042382773E12	2.8157485901214985	
1.699452604239254E12	2.858180148384589	
1.6994526042402305E12	2.8626276488257627	
1.699452604241207E12	2.859021567386973	
1.6994526042421836E12	2.815988995550751	
1.6994526042431602E12	2.8504871746485043	
1.6994526042441367E12	2.8342598081739516	
1.6994526042451133E12	2.9060208288058633	
1.6994526042460898E12	3.040888274616592	
1.6994526042470664E12	3.1562828806578573	
1.699452604248043E12	3.2504016062102643	
1.6994526042490195E12	3.309661544521039	
1.699452604249996E12	3.438518854600452	
1.6994526042509727E12	3.4243349342745466	
1.6994526042519492E12	3.3728881724144824	
1.6994526042529255E12	3.324686883849329	
1.699452604253902E12	3.0602409116714293	
1.6994526042548787E12	2.8652721085475417	
1.6994526042558552E12	2.850366971933878	
1.6994526042568318E12	2.8576993375260837	
1.6994526042578083E12	2.8656327166914206	
1.699452604258785E12	2.9704494838455697	
1.6994526042597615E12	3.031752868304992	
1.699452604260738E12	3.1063987540879356	
1.6994526042617146E12	3.1365696354591415	
1.6994526042626912E12	3.134285783881241	
1.6994526042636677E12	3.13464639202512	
1.6994526042646443E12	3.176837544858958	
1.6994526042656208E12	3.1345261893104936	
1.6994526042665974E12	3.0197325968423603	
1.699452604267574E12	2.9910041480466703	
1.6994526042685505E12	2.9887202964687702	
1.699452604269527E12	3.0235790837104024	
1.6994526042705037E12	3.035959963316913	
1.6994526042714802E12	3.039686247470329	
1.6994526042724568E12	2.987037458464002	
1.6994526042734333E12	2.969487862128559	
1.69945260427441E12	2.9869172557493755	
1.6994526042753865E12	3.0569954383765188	
1.699452604276363E12	3.1083219975219567	
1.6994526042773396E12	3.098705780351851	
1.6994526042783162E12	3.099907807498114	
1.6994526042792927E12	3.1199816608407094	
1.6994526042802693E12	3.141257541329568	
1.6994526042812458E12	3.2247984279948585	
1.6994526042822224E12	3.2389823483207643	
1.699452604283199E12	3.1937861276212685	
1.6994526042841755E12	3.111447268102241	
1.699452604285152E12	3.0182901642668445	
1.6994526042861287E12	2.9260946821484586	
1.6994526042871052E12	2.916478464978353	
1.6994526042880818E12	2.960713063960838	
1.6994526042890583E12	2.9726131327088434	
1.699452604290035E12	2.931624007021269	
1.6994526042910115E12	2.936071507462443	
1.699452604291988E12	3.008433541667486	
1.6994526042929646E12	3.0353589497437814	
1.6994526042939412E12	2.916598667692979	
1.6994526042949177E12	2.7983191965006826	
1.6994526042958943E12	2.775841288865561	
1.6994526042968708E12	2.808656629958546	
1.6994526042978474E12	2.7900252091914663	
1.699452604298824E12	2.703238849231265	
1.6994526042998005E12	2.6153706648394266	
1.699452604300777E12	2.6592446556780325	
1.6994526043017537E12	3.3504102647793608	
1.6994526043027302E12	3.664980768956435	
1.6994526043037068E12	3.5998308976289706	
1.6994526043046833E12	3.5570387312220015	
1.69945260430566E12	3.4742190608444683	
1.6994526043066365E12	3.3365869525973344	
1.699452604307613E12	3.2042437637937584	
1.6994526043085896E12	3.162172813674547	
1.6994526043095662E12	3.0580772628081556	
1.6994526043105427E12	2.932345223309027	
1.6994526043115193E12	2.872243865995868	
1.6994526043124958E12	3.0214154348471287	
1.6994526043134724E12	3.1234675395648726	
1.699452604314449E12	3.1253907829988936	
1.6994526043154255E12	3.078271318865377	
1.699452604316402E12	3.201118493213474	
1.6994526043173787E12	3.214701399966248	
1.6994526043183552E12	3.1377716626054046	
1.6994526043193318E12	3.11637557940192	
1.6994526043203083E12	3.132001932303341	
1.699452604321285E12	3.1643364625378205	
1.6994526043222615E12	3.0006203652167756	
1.699452604323238E12	2.871402446993484	
1.6994526043242146E12	2.8206769014211774	
1.6994526043251912E12	2.822720347569825	
1.6994526043261677E12	2.833298186456941	
1.6994526043271443E12	2.915396640546716	
1.6994526043281208E12	2.9896819181857808	
1.6994526043290974E12	3.0078325280943545	
1.699452604330074E12	3.018410366981471	
1.6994526043310505E12	3.081636994874914	
1.699452604332027E12	3.117096795689678	
1.6994526043330037E12	3.1358484191713836	
1.6994526043339802E12	3.125150377569641	
1.6994526043349568E12	3.1192604445529515	
1.6994526043359333E12	3.0465378022040293	
1.69945260433691E12	2.9048188016596	
1.6994526043378865E12	2.8417123764807832	
1.699452604338863E12	2.8090172381024248	
1.6994526043398396E12	2.788823182045203	
1.6994526043408162E12	2.8365436597518516	
1.6994526043417927E12	2.8314951457375463	
1.6994526043427693E12	2.760094733249513	
1.6994526043437458E12	2.721750067283718	
1.6994526043447222E12	2.760815949537271	
1.6994526043456987E12	2.7806493974506137	
1.6994526043466753E12	2.8607044053917416	
1.6994526043476519E12	2.8980874496405264	
1.6994526043486284E12	2.959150428670696	
1.699452604349605E12	3.071900574990182	
1.6994526043505815E12	3.117938214692062	
1.699452604351558E12	3.1475080824901362	
1.6994526043525347E12	3.1672213276888526	
1.6994526043535112E12	3.1201018635553357	
1.6994526043544878E12	3.145945447199994	
1.6994526043554644E12	3.1495515286387836	
1.699452604356441E12	3.173111260705542	
1.6994526043574175E12	3.1690243684082473	
1.699452604358394E12	3.08993098218413	
1.6994526043593706E12	3.0374023958924288	
1.6994526043603472E12	2.9658817806897697	
1.6994526043613237E12	2.8025262915126037	
1.6994526043623003E12	2.9057804233766107	
1.6994526043632769E12	3.0005001625021492	
1.6994526043642534E12	3.051826721647587	
1.69945260436523E12	2.962996915538738	
1.6994526043662065E12	2.906621842378995	
1.699452604367183E12	2.9185219111270007	
1.6994526043681597E12	2.9662423888336487	
1.6994526043691362E12	3.0156457045450655	
1.6994526043701128E12	3.082839022021177	
1.6994526043710894E12	3.089570374040251	
1.699452604372066E12	3.1085624029512093	
1.6994526043730425E12	3.116856390260425	
1.699452604374019E12	3.1758759231419473	
1.6994526043749956E12	3.226120657855748	
1.6994526043759722E12	3.2501612007810117	
1.6994526043769487E12	3.243429848761938	
1.6994526043779253E12	3.2636239048191595	
1.6994526043789019E12	3.3376687770289712	
1.6994526043798784E12	3.2937947861903654	
1.699452604380855E12	3.1562828806578573	
1.6994526043818315E12	3.030310435729476	
1.699452604382808E12	2.9125117753956844	
1.6994526043837847E12	2.8762105555785364	
1.6994526043847612E12	2.9065016396643686	
1.6994526043857378E12	2.9555443472319065	
1.6994526043867144E12	3.0240598945689077	
1.699452604387691E12	3.075867264572851	
1.6994526043886675E12	3.0841612518820667	
1.699452604389644E12	3.1732314634201684	
1.6994526043906206E12	3.2042437637937584	
1.6994526043915972E12	3.2163842379710164	
1.6994526043925737E12	3.177318355717463	
1.6994526043935503E12	3.135608013742131	
1.6994526043945269E12	3.143541392907468	
1.6994526043955034E12	3.1060381459440567	
1.69945260439648E12	3.0568752356618925	
1.6994526043974565E12	3.029589219441718	
1.699452604398433E12	2.917079478551485	
1.6994526043994097E12	2.7484350699307605	
1.6994526044003862E12	2.6856892528958225	
1.6994526044013628E12	2.698070132502333	
1.6994526044023394E12	2.7057631062384178	
1.699452604403316E12	2.7193460129911915	
1.6994526044042925E12	2.838587105900499	
1.699452604405269E12	2.934989683030806	
1.6994526044062456E12	2.991364756190549	
1.6994526044072222E12	3.0304306384441024	
1.6994526044081987E12	3.0775501025776193	
1.6994526044091753E12	3.1012300373590036	
1.6994526044101519E12	3.1220251069893568	
1.6994526044111284E12	3.137170649032273	
1.699452604412105E12	3.1136109169655146	
1.6994526044130815E12	3.0410084773312183	
1.699452604414058E12	3.00602948737496	
1.6994526044150347E12	3.460876559520947	
1.6994526044160112E12	3.9564723519252563	
1.6994526044169878E12	3.8288170689921066	
1.6994526044179644E12	3.636132117446119	
1.699452604418941E12	3.4468128419096677	
1.6994526044199175E12	3.232010590872438	
1.699452604420894E12	3.1150533495410304	
1.6994526044218706E12	2.8520498099386464	
1.6994526044228472E12	2.80949804896093	
1.6994526044238237E12	2.6723467515723014	
1.6994526044248003E12	2.447808080650339	
1.6994526044257769E12	2.4201614562862863	
1.6994526044267534E12	2.626549517299674	
1.69945260442773E12	2.714537904406139	
1.6994526044287065E12	2.769831153134245	
1.699452604429683E12	2.7908666281938506	
1.6994526044306597E12	2.834860821747083	
1.6994526044316362E12	2.9188825192708796	
1.6994526044326128E12	3.0186507724107234	
1.6994526044335894E12	3.141738352188073	
1.699452604434566E12	3.164817273396326	
1.6994526044355422E12	3.195468965626037	
1.6994526044365188E12	3.2550895120806906	
1.6994526044374954E12	3.2722785002722543	
1.699452604438472E12	3.252204646929659	
1.6994526044394485E12	3.2353762668819748	
1.699452604440425E12	3.184049707736537	
1.6994526044414016E12	3.1467868662023784	
1.6994526044423782E12	2.989441512756528	
1.6994526044433547E12	2.8889520433289264	
1.6994526044443313E12	2.9012127202208107	
1.6994526044453079E12	2.9506160359322275	
1.6994526044462844E12	3.024540705427413	
1.699452604447261E12	3.1929447086188842	
1.6994526044482375E12	3.1884972081777105	
1.699452604449214E12	3.143661595622094	
1.6994526044501907E12	3.125871593857399	
1.6994526044511672E12	3.1063987540879356	
1.6994526044521438E12	3.071539966846303	
1.6994526044531204E12	3.0663712501173714	
1.699452604454097E12	3.075987467287477	
1.6994526044550735E12	3.072261183134061	
1.69945260445605E12	3.001101176075281	
1.6994526044570266E12	3.0182901642668445	
1.6994526044580032E12	3.0069911090919703	
1.6994526044589797E12	2.996293067490228	
1.6994526044599563E12	2.9736949571404803	
1.6994526044609329E12	2.8269274425817463	
1.6994526044619094E12	2.7713937884243873	
1.699452604462886E12	2.635684923611274	
1.6994526044638625E12	2.573900728293347	
1.699452604464839E12	2.640012221337822	
1.6994526044658157E12	2.690497361480875	
1.6994526044667922E12	2.69686810535607	
1.6994526044677688E12	2.739540069048413	
1.6994526044687454E12	2.8168304145531353	
1.699452604469722E12	2.9506160359322275	
1.6994526044706985E12	2.9865566476054966	
1.699452604471675E12	3.0488216537819293	
1.6994526044726516E12	3.106518956802562	
1.6994526044736282E12	3.162653624533052	
1.6994526044746047E12	3.21626403525639	
1.6994526044755813E12	3.279370460435207	
1.6994526044765579E12	3.3105029635234233	
1.6994526044775344E12	3.3504102647793608	
1.699452604478511E12	3.371565942553593	
1.6994526044794875E12	3.3924812148985724	
1.699452604480464E12	3.3534153326450187	
1.6994526044814407E12	3.306175665796876	
1.6994526044824172E12	3.197752817203937	
1.6994526044833938E12	3.035238747029155	
1.6994526044843704E12	2.8544538642311728	
1.699452604485347E12	2.6168130974149424	
1.6994526044863235E12	2.50262051851994	
1.6994526044873E12	2.572578498432457	
1.6994526044882766E12	2.7249955405786284	
1.6994526044892532E12	2.9303017771603797	
1.6994526044902297E12	3.0813965894456614	
1.6994526044912063E12	3.1874153837460737	
1.6994526044921829E12	3.2697542432651017	
1.6994526044931594E12	3.2927129617587285	
1.699452604494136E12	3.2477571464884853	
1.6994526044951125E12	3.240064172752401	
1.699452604496089E12	3.2371793076013695	
1.6994526044970657E12	3.2391025510353906	
1.6994526044980422E12	3.2239570089924743	
1.6994526044990188E12	3.22768329314589	
1.6994526044999954E12	3.1832082887341526	
1.699452604500972E12	3.1441424064805994	
1.6994526045019485E12	3.132843351305725	
1.699452604502925E12	3.106879564946441	
1.6994526045039016E12	3.051466113503708	
1.6994526045048782E12	3.1448636227683573	
1.6994526045058547E12	3.12779483729142	
1.6994526045068313E12	2.9907637426174176	
1.6994526045078079E12	3.0013415815045335	
1.6994526045087844E12	3.53684467516478	
1.699452604509761E12	3.4149591225336935	
1.6994526045107375E12	3.05663483023264	
1.699452604511714E12	2.9354704938893112	
1.6994526045126907E12	2.8449578497756938	
1.6994526045136672E12	2.7949535204911458	
1.6994526045146438E12	2.801805075224846	
1.6994526045156204E12	2.803367710514988	
1.699452604516597E12	2.7306450681660657	
1.6994526045175735E12	2.638569788762306	
1.69945260451855E12	2.771994801997519	
1.6994526045195266E12	3.097984564064093	
1.6994526045205032E12	3.215182210824753	
1.6994526045214797E12	3.2107347103835795	
1.6994526045224563E12	3.2172256569734006	
1.6994526045234329E12	3.2260004551411217	
1.6994526045244094E12	3.2070084262301637	
1.699452604525386E12	3.2550895120806906	
1.6994526045263623E12	3.3129070178159497	
1.6994526045273389E12	3.3148302612499707	
1.6994526045283154E12	3.2478773492031117	
1.699452604529292E12	3.1903002488971053	
1.6994526045302686E12	3.169985990125258	
1.699452604531245E12	3.145945447199994	
1.6994526045322217E12	3.121424093416225	
1.6994526045331982E12	3.07851172429463	
1.6994526045341748E12	3.0806753731579035	
1.6994526045351514E12	3.0757470618582246	
1.699452604536128E12	3.0963017260593246	
1.6994526045371045E12	3.1085624029512093	
1.699452604538081E12	3.095700712486193	
1.6994526045390576E12	3.0963017260593246	
1.6994526045400342E12	3.0753864537143456	
1.6994526045410107E12	3.061683344246945	
1.6994526045419873E12	3.0741844265680824	
1.6994526045429639E12	3.073703615709577	
1.6994526045439404E12	3.054831789513245	
1.699452604544917E12	3.0140830692549234	
1.6994526045458936E12	2.9646797535435065	
1.69945260454687E12	2.952659482080875	
1.6994526045478467E12	2.9688868485554276	
1.6994526045488232E12	3.0009809733606545	
1.6994526045497998E12	3.0358397606022867	
1.6994526045507764E12	3.063967195824845	
1.699452604551753E12	3.0938976717667983	
1.6994526045527295E12	3.1220251069893568	
1.699452604553706E12	3.1314009187302094	
1.6994526045546826E12	3.0783915215800035	
1.6994526045556592E12	3.008433541667486	
1.6994526045566357E12	2.9208057627049007	
1.6994526045576123E12	2.792429263483993	
1.6994526045585889E12	2.561880456830715	
1.6994526045595654E12	2.435547403758455	
1.699452604560542E12	2.469684974712329	
1.6994526045615186E12	2.6051534340961897	
1.699452604562495E12	2.7664654771247084	
1.6994526045634717E12	2.848804336643736	
1.6994526045644482E12	3.0194921914131077	
1.6994526045654248E12	3.141377744044194	
1.6994526045664014E12	3.2001568714964637	
1.699452604567378E12	3.236217685884359	
1.6994526045683545E12	3.2409055917547853	
1.699452604569331E12	3.2466753220568485	
1.6994526045703076E12	3.221192346556069	
1.6994526045712842E12	3.1930649113335106	
1.6994526045722607E12	3.159528353952768	
1.6994526045732373E12	3.084281454596693	
1.6994526045742139E12	3.048701451067303	
1.6994526045751904E12	3.039806450184955	
1.699452604576167E12	3.0556732085156293	
1.6994526045771436E12	3.071539966846303	
1.69945260457812E12	3.0801945622993983	
1.6994526045790967E12	3.021175029417876	
1.6994526045800732E12	3.0198527995569866	
1.6994526045810498E12	3.1613313946721626	
1.6994526045820264E12	3.206407412657032	
1.699452604583003E12	3.157364705089494	
1.6994526045839795E12	3.097503753205588	
1.699452604584956E12	2.954582725514896	
1.6994526045859326E12	2.8632286623988943	
1.6994526045869092E12	2.854574066945799	
1.6994526045878857E12	2.914675424258958	
1.6994526045888623E12	2.9929273914806913	
1.6994526045898389E12	2.9932879996245703	
1.6994526045908154E12	3.0048274602286966	
1.699452604591792E12	3.075146048285093	
1.6994526045927686E12	3.160009164811273	
1.699452604593745E12	3.178039572005221	
1.6994526045947217E12	3.1185392282651936	
1.6994526045956982E12	2.9068622478082475	
1.6994526045966748E12	2.803367710514988	
1.6994526045976514E12	2.806012170236767	
1.699452604598628E12	2.7423047314848183	
1.6994526045996045E12	2.796876763925167	
1.699452604600581E12	2.8871490026095317	
1.6994526046015576E12	2.9934082023391966	
1.6994526046025342E12	3.1066391595171883	
1.6994526046035107E12	3.1416181494734468	
1.6994526046044873E12	3.1964305873430474	
1.6994526046054639E12	3.258334985375601	
1.6994526046064404E12	3.2697542432651017	
1.699452604607417E12	3.263864310248412	
1.6994526046083936E12	3.2565319446562064	
1.69945260460937E12	3.2214327519853216	
1.6994526046103467E12	3.087286522462351	
1.6994526046113232E12	2.905900626091237	
1.6994526046122998E12	2.705883308953044	
1.6994526046132764E12	2.6615285072559325	
1.699452604614253E12	2.643858708205864	
1.6994526046152295E12	2.7276400003004073	
1.699452604616206E12	2.8390679167590043	
1.6994526046171824E12	2.974656578857491	
1.699452604618159E12	3.083560238308935	
1.6994526046191355E12	3.1782799774344737	
1.699452604620112E12	3.2279236985751427	
1.6994526046210886E12	3.2673501889725753	
1.6994526046220652E12	3.2657875536824332	
1.6994526046230417E12	3.269513837835849	
1.6994526046240183E12	3.297761475773034	
1.6994526046249949E12	3.3150706666792233	
1.6994526046259714E12	3.253406674075922	
1.699452604626948E12	3.2225145764169585	
1.6994526046279246E12	3.2680714052603332	
1.6994526046289011E12	3.28285633915937	
1.6994526046298777E12	3.215542818968632	
1.6994526046308542E12	3.1464262580584994	
1.6994526046318308E12	3.0489418564965556	
1.6994526046328074E12	2.9619150911071013	
1.699452604633784E12	2.916839073122232	
1.6994526046347605E12	2.917920897553869	
1.699452604635737E12	2.9098673156739054	
1.6994526046367136E12	2.9408796160474955	
1.6994526046376902E12	2.9815081335911913	
1.6994526046386667E12	3.0756268591435982	
1.6994526046396433E12	3.12779483729142	
1.6994526046406199E12	3.153518218221452	
1.6994526046415964E12	3.195829573769916	
1.699452604642573E12	3.1957093710552895	
1.6994526046435496E12	3.145464636341489	
1.6994526046445261E12	3.0928158473351615	
1.6994526046455027E12	3.039445842041076	
1.6994526046464792E12	3.038243814894813	
1.6994526046474558E12	3.087767333320856	
1.6994526046484324E12	3.0752662509997193	
1.699452604649409E12	3.2077296425179216	
1.6994526046503855E12	3.2058063990839005	
1.699452604651362E12	3.1464262580584994	
1.6994526046523386E12	3.1090432138097146	
1.6994526046533152E12	3.0825986165919246	
1.6994526046542917E12	3.105437132370925	
1.6994526046552683E12	3.121424093416225	
1.6994526046562449E12	3.0690157098391504	
1.6994526046572214E12	3.0353589497437814	
1.699452604658198E12	3.0304306384441024	
1.6994526046591746E12	3.044854964199261	
1.6994526046601511E12	3.114452335967899	
1.6994526046611277E12	3.157364705089494	
1.6994526046621042E12	3.1571242996602416	
1.6994526046630808E12	3.146306055343873	
1.6994526046640574E12	3.1393342978955467	
1.699452604665034E12	3.140896933185689	
1.6994526046660105E12	3.0700975342707872	
1.699452604666987E12	2.969728267557812	
1.6994526046679636E12	2.8742873121445154	
1.6994526046689402E12	2.761416963110403	
1.6994526046699167E12	2.787260546755061	
1.6994526046708933E12	2.8557760940920627	
1.6994526046718699E12	2.904698598944974	
1.6994526046728464E12	2.9234502224266796	
1.699452604673823E12	2.927056303865469	
1.6994526046747996E12	2.9655211725458908	
1.6994526046757761E12	3.040167058328834	
1.6994526046767527E12	3.112649295248504	
1.6994526046777292E12	3.170106192839884	
1.6994526046787058E12	3.1668607195449736	
1.6994526046796824E12	3.1422191630465783	
1.699452604680659E12	3.172630449847037	
1.6994526046816355E12	3.1945073439090264	
1.699452604682612E12	3.2252792388533638	
1.6994526046835886E12	3.197031600916179	
1.6994526046845652E12	3.255209714795317	
1.6994526046855417E12	3.256772350085459	
1.6994526046865183E12	3.195829573769916	
1.6994526046874949E12	3.1128897006777567	
1.6994526046884714E12	3.0383640176094393	
1.699452604689448E12	2.9022945446524475	
1.6994526046904246E12	2.8437558226294306	
1.6994526046914011E12	2.82680723986712	
1.6994526046923777E12	2.82320115842833	
1.6994526046933542E12	2.789183790189082	
1.6994526046943308E12	2.8171910226970143	
1.6994526046953074E12	2.919363330129385	
1.699452604696284E12	3.028747800439334	
1.6994526046972605E12	3.0600005062421767	
1.699452604698237E12	3.0164871235474497	
1.6994526046992136E12	2.9215269789926586	
1.6994526047001902E12	2.9052996125181054	
1.6994526047011667E12	2.9389563726134744	
1.6994526047021433E12	3.0186507724107234	
1.6994526047031199E12	3.1109664572437357	
1.6994526047040964E12	3.207970047947174	
1.699452604705073E12	3.2344146451649642	
1.6994526047060496E12	3.2398237673231485	
1.6994526047070261E12	3.242348024330301	
1.6994526047080024E12	3.2391025510353906	
1.699452604708979E12	3.252204646929659	
1.6994526047099556E12	3.176476936715079	
1.6994526047109321E12	3.1658990978279626	
1.6994526047119087E12	3.28742404231517	
1.6994526047128853E12	3.2318903881578116	
1.6994526047138618E12	3.3581032385154455	
1.6994526047148384E12	3.9741421509753247	
1.699452604715815E12	3.8568243015000387	
1.6994526047167915E12	3.621827994405587	
1.699452604717768E12	3.460876559520947	
1.6994526047187446E12	3.261099647812007	
1.6994526047197212E12	3.1063987540879356	
1.6994526047206978E12	2.9389563726134744	
1.6994526047216743E12	2.8587811619577206	
1.699452604722651E12	2.756248246381471	
1.6994526047236274E12	2.5817139047440576	
1.699452604724604E12	2.603951406949926	
1.6994526047255806E12	2.7209086482813336	
1.6994526047265571E12	2.8742873121445154	
1.6994526047275337E12	2.8486841339291096	
1.6994526047285103E12	2.8432750117709253	
1.6994526047294868E12	2.8827015021683575	
1.6994526047304634E12	2.9218875871365375	
1.69945260473144E12	2.9551837390880276	
1.6994526047324165E12	3.0304306384441024	
1.699452604733393E12	3.0886087523232404	
1.6994526047343696E12	3.0775501025776193	
1.6994526047353462E12	3.0916138201888983	
1.6994526047363228E12	3.1127694979631304	
1.6994526047372993E12	3.1063987540879356	
1.699452604738276E12	3.1146927413971515	
1.6994526047392524E12	3.100629023785872	
1.699452604740229E12	3.0753864537143456	
1.6994526047412056E12	3.097623955920214	
1.6994526047421821E12	3.098705780351851	
1.6994526047431587E12	3.0787521297238825	
1.6994526047441353E12	3.0194921914131077	
1.6994526047451118E12	2.9117905591079265	
1.6994526047460884E12	2.9071026532375	
1.699452604747065E12	2.901332922935437	
1.6994526047480415E12	2.862026635252631	
1.699452604749018E12	2.8432750117709253	
1.6994526047499946E12	2.8520498099386464	
1.6994526047509712E12	2.8085364272439195	
1.6994526047519478E12	2.8543336615165464	
1.6994526047529243E12	2.9318644124505218	
1.699452604753901E12	2.9783828630109066	
1.6994526047548774E12	3.0074719199504756	
1.699452604755854E12	3.0856036844575825	
1.6994526047568306E12	3.1785203828637263	
1.6994526047578071E12	3.2524450523589117	
1.6994526047587837E12	3.261820864099765	
1.6994526047597603E12	3.254488498507559	
1.6994526047607368E12	3.2570127555147117	
1.6994526047617134E12	3.290068502036949	
1.69945260476269E12	3.322523234986055	
1.6994526047636665E12	3.3074978956577654	
1.699452604764643E12	3.219269103122048	
1.6994526047656196E12	3.104595713368541	
1.6994526047665962E12	3.065409628400361	
1.6994526047675728E12	3.0096355688137493	
1.6994526047685493E12	3.018530569696097	
1.699452604769526E12	3.0410084773312183	
1.6994526047705024E12	3.0621641551054504	
1.699452604771479E12	3.024901313571292	
1.6994526047724556E12	2.9828303634520807	
1.6994526047734321E12	2.9669636051214066	
1.6994526047744087E12	2.979945498301049	
1.6994526047753853E12	2.9390765753281007	
1.6994526047763618E12	2.9569867798074223	
1.6994526047773384E12	2.9646797535435065	
1.699452604778315E12	2.9979759054949966	
1.6994526047792915E12	3.054471181369366	
1.699452604780268E12	3.1238281477087515	
1.6994526047812446E12	3.155441461655473	
1.6994526047822212E12	3.159528353952768	
1.6994526047831978E12	3.1395747033247994	
1.6994526047841743E12	3.1180584174066883	
1.699452604785151E12	3.095340104342314	
1.6994526047861274E12	3.083199630165056	
1.699452604787104E12	3.0856036844575825	
1.6994526047880806E12	3.109884632812099	
1.6994526047890571E12	3.2749229599940333	
1.6994526047900337E12	3.2704754595528596	
1.6994526047910103E12	3.100989631929751	
1.6994526047919868E12	2.861906432538005	
1.6994526047929634E12	2.715018715264644	
1.69945260479394E12	2.678717495447496	
1.6994526047949165E12	2.6921801994856436	
1.699452604795893E12	2.7469926373552447	
1.6994526047968696E12	2.7953141286350247	
1.6994526047978462E12	2.8479629176413517	
1.6994526047988225E12	2.9563857662342907	
1.699452604799799E12	3.0533893569377293	
1.6994526048007756E12	3.1180584174066883	
1.6994526048017522E12	3.1079613893780778	
1.6994526048027288E12	3.078151116150751	
1.6994526048037053E12	3.0621641551054504	
1.699452604804682E12	3.1233473368502462	
1.6994526048056584E12	3.2553299175099433	
1.699452604806635E12	3.2923523536148496	
1.6994526048076116E12	3.2845391771641386	
1.6994526048085881E12	3.204003358364506	
1.6994526048095647E12	3.1365696354591415	
1.6994526048105413E12	3.042691315335987	
1.6994526048115178E12	3.0214154348471287	
1.6994526048124944E12	2.998096108209623	
1.699452604813471E12	2.9733343489966013	
1.6994526048144475E12	2.969728267557812	
1.699452604815424E12	2.9775414440085224	
1.6994526048164006E12	3.032113476448871	
1.6994526048173772E12	3.097503753205588	
1.6994526048183538E12	3.1124088898192515	
1.6994526048193303E12	3.1019512536467615	
1.699452604820307E12	3.090051184898756	
1.6994526048212834E12	3.0866855088892193	
1.69945260482226E12	3.0977441586348404	
1.6994526048232366E12	3.0596398980982977	
1.6994526048242131E12	3.0579570600935293	
1.6994526048251897E12	3.020453813130118	
1.6994526048261663E12	2.9611938748193434	
1.6994526048271428E12	2.943043264910769	
1.6994526048281194E12	2.9597514422438276	
1.699452604829096E12	2.9756182005745013	
1.6994526048300725E12	3.005308271087202	
1.699452604831049E12	3.021535637561755	
1.6994526048320256E12	3.0119194203916497	
1.6994526048330022E12	3.059760100812924	
1.6994526048339788E12	3.1120482816753725	
1.6994526048349553E12	3.1658990978279626	
1.699452604835932E12	3.1582061240918784	
1.6994526048369084E12	3.164216259823194	
1.699452604837885E12	3.188617410892337	
1.6994526048388616E12	3.2905493128954544	
1.6994526048398381E12	3.318676748118013	
1.6994526048408147E12	3.2636239048191595	
1.6994526048417913E12	3.1874153837460737	
1.6994526048427678E12	3.029949827585597	
1.6994526048437444E12	2.866474135693805	
1.699452604844721E12	2.8723640687104943	
1.6994526048456975E12	3.006149690089586	
1.699452604846674E12	2.998817324497381	
1.6994526048476506E12	2.9252532631460744	
1.6994526048486272E12	2.854814472375052	
1.6994526048496038E12	2.865031703118289	
1.6994526048505803E12	2.911910761822553	
1.699452604851557E12	3.004226446655565	
1.6994526048525334E12	3.0579570600935293	
1.69945260485351E12	3.0741844265680824	
1.6994526048544866E12	3.1044755106539146	
1.6994526048554631E12	3.1710678145568947	
1.6994526048564397E12	3.2061670072277795	
1.6994526048574163E12	3.2734805274185175	
1.6994526048583928E12	3.2983624893461654	
1.6994526048593694E12	3.2976412730584075	
1.699452604860346E12	3.250642011639517	
1.6994526048613225E12	3.1615718001014153	
1.699452604862299E12	3.162653624533052	
1.6994526048632756E12	3.158085921377252	
1.6994526048642522E12	3.079713751440893	
1.6994526048652288E12	2.9539817119417644	
1.6994526048662053E12	2.8702004198472206	
1.699452604867182E12	2.8251244018623516	
1.6994526048681584E12	2.806492981095272	
1.699452604869135E12	2.8122627113973353	
1.6994526048701116E12	2.78305345174314	
1.6994526048710881E12	2.728361216588165	
1.6994526048720647E12	2.695065064636675	
1.6994526048730413E12	3.10952402466822	
1.6994526048740178E12	3.792996660033464	
1.6994526048749944E12	3.7170285443896307	
1.699452604875971E12	3.50354852321329	
1.6994526048769475E12	3.421810677267394	
1.699452604877924E12	3.301968570784955	
1.6994526048789006E12	3.1333241621642305	
1.6994526048798772E12	3.012760839394034	
1.6994526048808538E12	2.9077036668106317	
1.6994526048818303E12	2.82909109144502	
1.699452604882807E12	2.7230722971446073	
1.6994526048837834E12	2.765984666266203	
1.69945260488476E12	3.012400231250155	
1.6994526048857366E12	3.128155445435299	
1.6994526048867131E12	3.1520757856459363	
1.6994526048876897E12	3.121303890701599	
1.6994526048886663E12	3.1092836192389672	
1.6994526048896426E12	3.070458142414666	
1.6994526048906191E12	2.992807188766065	
1.6994526048915957E12	2.9641989426850013	
1.6994526048925723E12	2.9393169807573534	
1.6994526048935488E12	2.9797050928717965	
1.6994526048945254E12	2.9396775889012323	
1.699452604895502E12	2.916839073122232	
1.6994526048964785E12	2.93126339887739	
1.699452604897455E12	2.9664827942629013	
1.6994526048984316E12	3.0017021896484124	
1.6994526048994082E12	3.054110573225487	
1.6994526049003848E12	3.066130844688119	
1.6994526049013613E12	3.0622843578200767	
1.699452604902338E12	3.068174290836766	
1.6994526049033145E12	3.128876661723057	
1.699452604904291E12	3.2141003863931163	
1.6994526049052676E12	3.2772068115719333	
1.6994526049062441E12	3.256772350085459	
1.6994526049072207E12	3.1923436950457527	
1.6994526049081973E12	3.1347665947397463	
1.6994526049091738E12	3.1295978780108147	
1.6994526049101504E12	3.1146927413971515	
1.699452604911127E12	3.103273483507651	
1.6994526049121035E12	3.0924552391912825	
1.69945260491308E12	3.0327144900220024	
1.6994526049140566E12	2.9738151598551066	
1.6994526049150332E12	2.9107087346762897	
1.6994526049160098E12	2.8705610279910996	
1.6994526049169863E12	2.903616774513337	
1.699452604917963E12	3.0387246257533183	
1.6994526049189395E12	3.1124088898192515	
1.699452604919916E12	3.114452335967899	
1.6994526049208926E12	3.0988259830664773	
1.6994526049218691E12	3.056394424803387	
1.6994526049228457E12	3.059279289954419	
1.6994526049238223E12	3.0293488140124656	
1.6994526049247988E12	2.9450867110594166	
1.6994526049257754E12	2.7858181141795453	
1.699452604926752E12	2.700954997653365	
1.6994526049277285E12	2.6600860746804167	
1.699452604928705E12	2.777764532299582	
1.6994526049296816E12	2.818152644414025	
1.6994526049306582E12	2.834740619032457	
1.6994526049316348E12	2.81634960369463	
1.6994526049326113E12	2.882461096739105	
1.699452604933588E12	2.9857152286031123	
1.6994526049345645E12	3.0845218600259456	
1.699452604935541E12	3.1809244371562526	
1.6994526049365176E12	3.209773088666569	
1.6994526049374941E12	3.217826670546532	
1.6994526049384707E12	3.2220337655584532	
1.6994526049394473E12	3.2102538995250742	
1.6994526049404238E12	3.192824505904258	
1.6994526049414004E12	3.201479101357353	
1.699452604942377E12	3.180323423583121	
1.6994526049433535E12	3.1636152462500626	
1.69945260494433E12	3.1362090273152625	
1.6994526049453066E12	3.1199816608407094	
1.6994526049462832E12	3.131160513300957	
1.6994526049472598E12	3.1602495702405258	
1.6994526049482363E12	3.1793618018661105	
1.699452604949213E12	3.1761163285712	
1.6994526049501895E12	3.16109098924291	
1.699452604951166E12	3.1333241621642305	
1.6994526049521426E12	3.1139715251093936	
1.6994526049531191E12	3.0783915215800035	
1.6994526049540957E12	3.030671043873355	
1.6994526049550723E12	2.968285834982296	
1.6994526049560488E12	2.919483532844011	
1.6994526049570254E12	2.963718131826496	
1.699452604958002E12	2.987518269322507	
1.6994526049589785E12	2.994369824056207	
1.699452604959955E12	2.998456716353502	
1.6994526049609316E12	2.9968940810633597	
1.6994526049619082E12	2.986797053034749	
1.6994526049628848E12	2.947851373495822	
1.6994526049638613E12	2.8871490026095317	
1.699452604964838E12	2.8609448108209943	
1.6994526049658145E12	2.86010339181861	
1.699452604966791E12	2.926936101150843	
1.6994526049677676E12	3.010957798674639	
1.6994526049687441E12	3.0282669895808287	
1.6994526049697207E12	3.0530287487938503	
1.6994526049706973E12	3.1090432138097146	
1.6994526049716738E12	3.136810040888394	
1.6994526049726504E12	3.155441461655473	
1.699452604973627E12	3.2005174796403426	
1.6994526049746035E12	3.239222753750017	
1.69945260497558E12	3.237419713030622	
1.6994526049765566E12	3.2382611320330064	
1.6994526049775332E12	3.2463147139129696	
1.6994526049785098E12	3.249199579064001	
1.6994526049794863E12	3.2429490379034327	
1.6994526049804626E12	3.22768329314589	
1.6994526049814392E12	3.1850113294535474	
1.6994526049824158E12	3.12551098571352	
1.6994526049833923E12	3.072741993992566	
1.699452604984369E12	2.989080904612649	
1.6994526049853455E12	2.9462887382056797	
1.699452604986322E12	2.945567521917922	
1.6994526049872986E12	2.9953314457732176	
1.6994526049882751E12	3.0093951633844966	
1.6994526049892517E12	3.0117992176770234	
1.6994526049902283E12	3.011318406818518	
1.6994526049912048E12	3.0114386095331445	
1.6994526049921814E12	3.005428473801828	
1.699452604993158E12	2.9983365136388755	
1.6994526049941345E12	3.104114902510035	
1.699452604995111E12	3.14053632504181	
1.6994526049960876E12	3.1104856463852304	
1.6994526049970642E12	2.994009215912328	
1.6994526049980408E12	2.989441512756528	
1.6994526049990173E12	2.9883596883248913	
1.699452604999994E12	2.93811495361109	
1.6994526050009705E12	2.914314816115079	
1.699452605001947E12	2.874527717573768	
1.6994526050029236E12	2.843876025344057	
1.6994526050039001E12	2.8235617665722095	
1.6994526050048767E12	2.8471214986389675	
1.6994526050058533E12	2.8464002823512096	
1.6994526050068298E12	3.0220164484202603	
1.6994526050078064E12	3.134285783881241	
1.699452605008783E12	3.157364705089494	
1.6994526050097595E12	3.1852517348828	
1.699452605010736E12	3.1952285601967843	
1.6994526050117126E12	3.2298469420091642	
1.6994526050126892E12	3.2184276841196637	
1.6994526050136658E12	3.162533421818426	
1.6994526050146423E12	3.11637557940192	
1.699452605015619E12	3.046417599489403	
1.6994526050165955E12	3.007592122665102	
1.699452605017572E12	3.0374023958924288	
1.6994526050185486E12	2.9729737408527224	
1.6994526050195251E12	3.0251417190005445	
1.6994526050205017E12	3.036801382319297	
1.6994526050214783E12	3.017328542549834	
1.6994526050224548E12	3.0312720574464866	
1.6994526050234314E12	3.0043466493701914	
1.699452605024408E12	3.018530569696097	
1.6994526050253845E12	2.971651510991833	
1.699452605026361E12	2.9054198152327317	
1.6994526050273376E12	2.889913665045937	
1.6994526050283142E12	2.853011431655657	
1.6994526050292908E12	2.8613054189648732	
1.6994526050302673E12	2.940999818762122	
1.699452605031244E12	2.978863673869412	
1.6994526050322205E12	3.052547937935345	
1.699452605033197E12	3.1426999739050836	
1.6994526050341736E12	3.1631344353915574	
1.6994526050351501E12	3.143541392907468	
1.6994526050361267E12	3.157725313233373	
1.6994526050371033E12	3.130439297013199	
1.6994526050380798E12	3.0694965206976557	
1.6994526050390564E12	3.017689150693713	
1.699452605040033E12	2.988600093754144	
1.6994526050410095E12	3.0554328030863767	
1.699452605041986E12	3.1475080824901362	
1.6994526050429626E12	3.1982336280624426	
1.6994526050439392E12	3.1655384896840837	
1.6994526050449158E12	3.1529172046483205	
1.6994526050458923E12	3.3312980331537765	
1.699452605046869E12	3.391279187752309	
1.6994526050478455E12	3.486119129592474	
1.699452605048822E12	3.444288584902515	
1.6994526050497986E12	3.3327404657292923	
1.6994526050507751E12	3.217706467831906	
1.6994526050517517E12	3.109884632812099	
1.6994526050527283E12	2.8763307582931628	
1.6994526050537048E12	2.7385784473314025	
1.6994526050546814E12	2.621981814143874	
1.699452605055658E12	2.38674510162017	
1.6994526050566345E12	2.3064496882497894	
1.699452605057611E12	2.351044895376153	
1.6994526050585876E12	2.541205589914988	
1.6994526050595642E12	2.6395314104793166	
1.6994526050605408E12	2.732327906170834	
1.6994526050615173E12	2.826446631723241	
1.699452605062494E12	2.959871644958454	
1.6994526050634705E12	3.0955805097715667	
1.699452605064447E12	3.1691445711228736	
1.6994526050654236E12	3.1755153149980684	
1.6994526050664001E12	3.210975115812832	
1.6994526050673767E12	3.225038833424111	
1.6994526050683533E12	3.2606188369535016	
1.6994526050693298E12	3.242227821615675	
1.6994526050703064E12	3.2757643789964175	
1.6994526050712827E12	3.293674583475739	
1.6994526050722593E12	3.24956018720788	
1.6994526050732358E12	3.103273483507651	
1.6994526050742124E12	3.0482206402087977	
1.699452605075189E12	2.9763394168622592	
1.6994526050761655E12	2.9502554277883486	
1.699452605077142E12	2.9681656322676697	
1.6994526050781187E12	2.9873980666078808	
1.6994526050790952E12	2.9906435399027913	
1.6994526050800718E12	2.9703292811309434	
1.6994526050810483E12	2.988239485610265	
1.699452605082025E12	2.995091040343965	
1.6994526050830015E12	3.028747800439334	
1.699452605083978E12	3.102552267219893	
1.6994526050849546E12	3.1518353802166836	
1.6994526050859312E12	3.167822341261984	
1.6994526050869077E12	3.176957747573584	
1.6994526050878843E12	3.2050851827961426	
1.6994526050888608E12	3.193665924906642	
1.6994526050898374E12	3.161451597386789	
1.699452605090814E12	3.1520757856459363	
1.6994526050917905E12	3.1487101096363994	
1.699452605092767E12	3.1283958508645515	
1.6994526050937437E12	3.1078411866634514	
1.6994526050947202E12	3.039085233897197	
1.6994526050956968E12	3.0110780013892655	
1.6994526050966733E12	3.003144622223928	
